EXPLAIN
TAG	EISPOT
TITLE	LABEL	Potentiostatic EIS	Test &Identifier
DATE	LABEL	4/21/2026	Date
TIME	LABEL	15:48:50	Time
NOTES	NOTES	1	&Notes...
	
PSTAT	PSTAT	Rhea	Potentiostat
VDC	POTEN	-1.20000E+000	F	DC &Voltage (V)
FREQINIT	QUANT	1.00000E+003	Initial Fre&q. (Hz)
FREQFINAL	QUANT	1.00000E+000	Final Fre&q. (Hz)
PTSPERDEC	QUANT	1.00000E+001	Points/&decade
VAC	QUANT	1.00000E+001	AC &Voltage (mV rms)
AREA	QUANT	2.80000E-001	&Area (cm^2)
CONDIT	TWOPARAM	F	0.00000E+000	0.00000E+000	Conditionin&g	Time(s)	E(V)
DELAY	TWOPARAM	T	1.00000E+001	0.00000E+000	Init. De&lay	Time(s)	Stab.(mV/s)
SPEED	SELECTOR	2	&Optimize for:
ZGUESS	QUANT	2.86800E+005	E&stimated Z (ohms)
OCVCURVE	TABLE	40
	Pt	T	Vf	Vm	Ach	Over	Temp
	#	s	V vs. Ref.	V	V	bits	deg C
	0	0.25	6.92045E-003	6.92045E-003	0.00000E+000	...........	1409.48
	1	0.5	6.96316E-003	9.15569E-003	0.00000E+000	...........	1410.19
	2	0.75	7.22508E-003	1.12594E-002	0.00000E+000	...........	1410.19
	3	1	7.96444E-003	1.32447E-002	0.00000E+000	...........	1410.19
	4	1.25	9.28197E-003	1.51160E-002	0.00000E+000	...........	1410.19
	5	1.5	1.10234E-002	1.68898E-002	0.00000E+000	...........	1409.92
	6	1.75	1.29380E-002	1.85526E-002	0.00000E+000	...........	1409.92
	7	2	1.48423E-002	2.01400E-002	0.00000E+000	...........	1409.92
	8	2.25	1.66535E-002	2.16276E-002	0.00000E+000	...........	1409.92
	9	2.5	1.83536E-002	2.30425E-002	0.00000E+000	...........	1409.92
	10	2.75	1.99498E-002	2.43495E-002	0.00000E+000	...........	1409.92
	11	3	2.14512E-002	2.55951E-002	0.00000E+000	...........	1409.92
	12	3.25	2.28640E-002	2.67522E-002	0.00000E+000	...........	1409.92
	13	3.5	2.41912E-002	2.77996E-002	0.00000E+000	...........	1409.92
	14	3.75	2.54342E-002	2.88256E-002	0.00000E+000	...........	1409.92
	15	4	2.65958E-002	2.97895E-002	0.00000E+000	...........	1409.92
	16	4.25	2.76840E-002	3.07127E-002	0.00000E+000	...........	1409.92
	17	4.5	2.87093E-002	3.15541E-002	0.00000E+000	...........	1410.19
	18	4.75	2.96781E-002	3.23523E-002	0.00000E+000	...........	1410.19
	19	5	3.05920E-002	3.31301E-002	0.00000E+000	...........	1410.19
	20	5.25	3.14536E-002	3.38674E-002	0.00000E+000	...........	1410.19
	21	5.5	3.22688E-002	3.45592E-002	0.00000E+000	...........	1409.84
	22	5.75	3.30433E-002	3.52225E-002	0.00000E+000	...........	1409.84
	23	6	3.37800E-002	3.58445E-002	0.00000E+000	...........	1409.84
	24	6.25	3.44797E-002	3.64348E-002	0.00000E+000	...........	1409.84
	25	6.5	3.51430E-002	3.69862E-002	0.00000E+000	...........	1409.84
	26	6.75	3.57705E-002	3.75213E-002	0.00000E+000	...........	1409.84
	27	7	3.63636E-002	3.80086E-002	0.00000E+000	...........	1409.84
	28	7.25	3.69241E-002	3.84832E-002	0.00000E+000	...........	1409.84
	29	7.5	3.74538E-002	3.89393E-002	0.00000E+000	...........	1409.84
	30	7.75	3.79555E-002	3.93685E-002	0.00000E+000	...........	1409.84
	31	8	3.84324E-002	3.97755E-002	0.00000E+000	...........	1409.84
	32	8.25	3.88864E-002	4.01628E-002	0.00000E+000	...........	1409.84
	33	8.5	3.93182E-002	4.05269E-002	0.00000E+000	...........	1409.84
	34	8.75	3.97282E-002	4.08768E-002	0.00000E+000	...........	1409.84
	35	9	4.01171E-002	4.12057E-002	0.00000E+000	...........	1409.84
	36	9.25	4.04857E-002	4.15121E-002	0.00000E+000	...........	1409.84
	37	9.5	4.08348E-002	4.18032E-002	0.00000E+000	...........	1409.84
	38	9.75	4.11648E-002	4.20895E-002	0.00000E+000	...........	1409.84
	39	10	4.14768E-002	4.23441E-002	0.00000E+000	...........	1409.84
EOC	QUANT	0.0414768	Open Circuit (V)
PSTATMODEL	IQUANT	64	Pstat Model
PSTATSECTION	LABEL	IFC1010-22099	Pstat Section
PSTATSERIALNO	LABEL	22099	Pstat Serial Number
CTRLMODE	IQUANT	1	Control Mode
ELECTROMETER	IQUANT	0	RE=0 or CS=1
IESTAB	IQUANT	0	I/E Stability
CASPEED	IQUANT	3	Control Amp Speed
CONVENTION	IQUANT	1	Current Convention
ICHRANGE	IQUANT	2	Ich Range
ICHRANGEMODE	TOGGLE	F	Ich Auto Range
ICHOFFSETENABLE	TOGGLE	T	Ich Offset Enable
ICHOFFSET	QUANT	0	Ich Offset (V)
ICHFILTER	IQUANT	4	Ich Filter
VCHRANGE	IQUANT	2	Vch Range
VCHRANGEMODE	TOGGLE	F	Vch Auto Range
VCHOFFSETENABLE	TOGGLE	T	Vch Offset Enable
VCHOFFSET	QUANT	0	Vch Offset (V)
VCHFILTER	IQUANT	4	Vch Filter
IERANGELOWERLIMIT	IQUANT	4	I/E Range Lower Limit
IERANGEMODE	TOGGLE	F	I/E AutoRange
IERANGE	IQUANT	7	I/E Range
ACHSELECT	IQUANT	0	Ach Select
ACHRANGE	IQUANT	2	Ach Range
ACHOFFSETENABLE	TOGGLE	F	Ach Offset Enable
ACHOFFSET	QUANT	0	Ach Offset (V)
ACHFILTER	IQUANT	1	Ach Filter
SENSECABLEID	IQUANT	14	Sense Cable ID
PWRCABLEID	IQUANT	14	Power Cable ID
DCCALDATE	LABEL	11/25/2025	DC Calibration Date
ACCALDATE	LABEL	9/8/2018	AC Calibration Date
FRAMEWORKVERSION	QUANT	7.07	Framework Version
INSTRUMENTVERSION	LABEL	4.34	Instrument Version
ZCURVE	TABLE
	Pt	Time	Freq	Zreal	Zimag	Zsig	Zmod	Zphz	Idc	Vdc	IERange
	#	s	Hz	ohm	ohm	V	ohm	°	A	V	#
	0	7	1004.464	399.1567	-50.88742	1	402.3874	-7.265294	-3.04609E-005	-1.199856	8
	1	9	800.3049	395.5984	-61.2594	1	400.3134	-8.802481	-2.853051E-005	-1.199858	8
	2	12	631.0096	395.5752	-74.76687	1	402.579	-10.7031	-2.794169E-005	-1.19986	8
	3	15	498.6702	394.2152	-91.38374	1	404.6685	-13.05132	-2.789731E-005	-1.19986	8
	4	17	397.2458	396	-111.221	1	411.3224	-15.68798	-2.802822E-005	-1.199859	8
	5	20	319.6023	395.3244	-134.5908	1	417.6076	-18.80147	-2.819285E-005	-1.199862	8
	6	23	251.1161	397.6077	-167.0098	1	431.2588	-22.78419	-2.84514E-005	-1.199859	8
	7	25	200.8929	398.6957	-204.5588	1	448.11	-27.161	-2.878372E-005	-1.199862	8
	8	27	158.0056	404.0467	-255.4963	1	478.0503	-32.30695	-2.898327E-005	-1.199862	8
	9	30	125.558	410.7739	-316.6302	1	518.6423	-37.62553	-2.921636E-005	-1.199861	8
	10	32	99.734	420.8012	-393.2559	1	575.9547	-43.06201	-2.943813E-005	-1.199862	8
	11	35	79.44915	433.7856	-486.6879	1	651.9471	-48.28934	-2.964397E-005	-1.199851	8
	12	37	63.34459	452.496	-602.2747	1	753.3176	-53.08204	-2.979152E-005	-1.199852	8
	13	40	49.86702	482.9803	-753.3448	1	894.8734	-57.33548	-2.99516E-005	-1.199851	8
	14	42	38.10976	533.2357	-968.207	1	1105.334	-61.15641	-3.016163E-005	-1.199853	8
	15	45	31.25	585.4841	-1163.334	1	1302.359	-63.28476	-3.033036E-005	-1.199852	8
	16	47	24.93351	674.917	-1429.315	1	1580.65	-64.7235	-3.054173E-005	-1.199854	8
	17	50	19.94681	802.665	-1744.924	1	1920.685	-65.29758	-3.067779E-005	-1.199854	8
	18	52	15.57309	1014.543	-2162.096	1	2388.296	-64.86213	-3.082701E-005	-1.199854	8
	19	54	12.40079	1301.475	-2603.846	1	2910.988	-63.44284	-3.0958E-005	-1.199856	8
	20	58	9.91015	1698.09	-3078.604	1	3515.866	-61.11985	-3.102738E-005	-1.199857	8
	21	61	7.971939	2223.013	-3529.151	1	4170.935	-57.79316	-3.127785E-005	-1.199859	8
	22	65	6.351626	2927.07	-3953.471	1	4919.113	-53.4845	-3.148038E-005	-1.199861	8
	23	69	4.970838	3832.861	-4264.943	1	5734.158	-48.05429	-3.177939E-005	-1.199861	8
	24	74	3.942389	4764.229	-4360.076	1	6458.184	-42.46379	-3.213427E-005	-1.199861	8
	25	80	3.16723	5625.62	-4298.353	1	7079.791	-37.38226	-3.246144E-005	-1.199864	8
	26	86	2.485419	6447.125	-4069.133	1	7623.861	-32.25826	-3.286635E-005	-1.199862	8
	27	94	1.971194	7107.594	-3806.5	1	8062.712	-28.17146	-3.321504E-005	-1.199867	8
	28	103	1.605308	7548.085	-3550.296	1	8341.354	-25.19028	-3.355918E-005	-1.199872	8
	29	114	1.260081	7920.781	-3232.209	1	8554.878	-22.19875	-3.426224E-005	-1.199874	8
	30	127	1.001603	8246.977	-3096.084	1	8808.993	-20.57716	-3.47629E-005	-1.199875	8
