EXPLAIN
TAG	EISPOT
TITLE	LABEL	Potentiostatic EIS	Test &Identifier
DATE	LABEL	4/21/2026	Date
TIME	LABEL	15:52:48	Time
NOTES	NOTES	1	&Notes...
	
PSTAT	PSTAT	Titan	Potentiostat
VDC	POTEN	-1.40000E+000	F	DC &Voltage (V)
FREQINIT	QUANT	1.00000E+003	Initial Fre&q. (Hz)
FREQFINAL	QUANT	1.00000E+000	Final Fre&q. (Hz)
PTSPERDEC	QUANT	1.00000E+001	Points/&decade
VAC	QUANT	1.00000E+001	AC &Voltage (mV rms)
AREA	QUANT	2.80000E-001	&Area (cm^2)
CONDIT	TWOPARAM	F	0.00000E+000	0.00000E+000	Conditionin&g	Time(s)	E(V)
DELAY	TWOPARAM	T	1.00000E+001	0.00000E+000	Init. De&lay	Time(s)	Stab.(mV/s)
SPEED	SELECTOR	2	&Optimize for:
ZGUESS	QUANT	2.86800E+005	E&stimated Z (ohms)
OCVCURVE	TABLE	40
	Pt	T	Vf	Vm	Ach	Over	Temp
	#	s	V vs. Ref.	V	V	bits	deg C
	0	0.25	-2.16254E-001	-2.16254E-001	0.00000E+000	...........	1410.45
	1	0.5	-2.16252E-001	-2.16147E-001	0.00000E+000	...........	1410.45
	2	0.75	-2.16239E-001	-2.16043E-001	0.00000E+000	...........	1410.80
	3	1	-2.16204E-001	-2.15944E-001	0.00000E+000	...........	1410.80
	4	1.25	-2.16139E-001	-2.15834E-001	0.00000E+000	...........	1410.80
	5	1.5	-2.16052E-001	-2.15733E-001	0.00000E+000	...........	1410.80
	6	1.75	-2.15951E-001	-2.15623E-001	0.00000E+000	...........	1410.89
	7	2	-2.15846E-001	-2.15524E-001	0.00000E+000	...........	1410.89
	8	2.25	-2.15740E-001	-2.15417E-001	0.00000E+000	...........	1410.89
	9	2.5	-2.15635E-001	-2.15312E-001	0.00000E+000	...........	1410.89
	10	2.75	-2.15530E-001	-2.15207E-001	0.00000E+000	...........	1410.89
	11	3	-2.15425E-001	-2.15107E-001	0.00000E+000	...........	1410.89
	12	3.25	-2.15321E-001	-2.15000E-001	0.00000E+000	...........	1410.89
	13	3.5	-2.15217E-001	-2.14894E-001	0.00000E+000	...........	1410.89
	14	3.75	-2.15113E-001	-2.14791E-001	0.00000E+000	...........	1410.80
	15	4	-2.15008E-001	-2.14686E-001	0.00000E+000	...........	1410.80
	16	4.25	-2.14904E-001	-2.14584E-001	0.00000E+000	...........	1410.80
	17	4.5	-2.14799E-001	-2.14481E-001	0.00000E+000	...........	1410.80
	18	4.75	-2.14695E-001	-2.14377E-001	0.00000E+000	...........	1410.80
	19	5	-2.14592E-001	-2.14277E-001	0.00000E+000	...........	1410.80
	20	5.25	-2.14489E-001	-2.14170E-001	0.00000E+000	...........	1410.80
	21	5.5	-2.14386E-001	-2.14073E-001	0.00000E+000	...........	1410.80
	22	5.75	-2.14283E-001	-2.13972E-001	0.00000E+000	...........	1410.89
	23	6	-2.14181E-001	-2.13875E-001	0.00000E+000	...........	1410.89
	24	6.25	-2.14080E-001	-2.13772E-001	0.00000E+000	...........	1410.89
	25	6.5	-2.13980E-001	-2.13672E-001	0.00000E+000	...........	1410.89
	26	6.75	-2.13880E-001	-2.13573E-001	0.00000E+000	...........	1410.89
	27	7	-2.13780E-001	-2.13471E-001	0.00000E+000	...........	1410.89
	28	7.25	-2.13680E-001	-2.13373E-001	0.00000E+000	...........	1410.89
	29	7.5	-2.13580E-001	-2.13271E-001	0.00000E+000	...........	1410.89
	30	7.75	-2.13480E-001	-2.13170E-001	0.00000E+000	...........	1410.80
	31	8	-2.13380E-001	-2.13073E-001	0.00000E+000	...........	1410.80
	32	8.25	-2.13280E-001	-2.12983E-001	0.00000E+000	...........	1410.80
	33	8.5	-2.13181E-001	-2.12881E-001	0.00000E+000	...........	1410.80
	34	8.75	-2.13083E-001	-2.12782E-001	0.00000E+000	...........	1410.80
	35	9	-2.12986E-001	-2.12684E-001	0.00000E+000	...........	1410.80
	36	9.25	-2.12888E-001	-2.12579E-001	0.00000E+000	...........	1410.80
	37	9.5	-2.12790E-001	-2.12482E-001	0.00000E+000	...........	1410.80
	38	9.75	-2.12690E-001	-2.12386E-001	0.00000E+000	...........	1410.80
	39	10	-2.12590E-001	-2.12286E-001	0.00000E+000	...........	1410.80
EOC	QUANT	-0.21259	Open Circuit (V)
PSTATMODEL	IQUANT	64	Pstat Model
PSTATSECTION	LABEL	IFC1010-22093	Pstat Section
PSTATSERIALNO	LABEL	22093	Pstat Serial Number
CTRLMODE	IQUANT	1	Control Mode
ELECTROMETER	IQUANT	0	RE=0 or CS=1
IESTAB	IQUANT	0	I/E Stability
CASPEED	IQUANT	3	Control Amp Speed
CONVENTION	IQUANT	1	Current Convention
ICHRANGE	IQUANT	2	Ich Range
ICHRANGEMODE	TOGGLE	F	Ich Auto Range
ICHOFFSETENABLE	TOGGLE	T	Ich Offset Enable
ICHOFFSET	QUANT	0	Ich Offset (V)
ICHFILTER	IQUANT	4	Ich Filter
VCHRANGE	IQUANT	2	Vch Range
VCHRANGEMODE	TOGGLE	F	Vch Auto Range
VCHOFFSETENABLE	TOGGLE	T	Vch Offset Enable
VCHOFFSET	QUANT	0	Vch Offset (V)
VCHFILTER	IQUANT	4	Vch Filter
IERANGELOWERLIMIT	IQUANT	4	I/E Range Lower Limit
IERANGEMODE	TOGGLE	F	I/E AutoRange
IERANGE	IQUANT	7	I/E Range
ACHSELECT	IQUANT	0	Ach Select
ACHRANGE	IQUANT	2	Ach Range
ACHOFFSETENABLE	TOGGLE	F	Ach Offset Enable
ACHOFFSET	QUANT	0	Ach Offset (V)
ACHFILTER	IQUANT	1	Ach Filter
SENSECABLEID	IQUANT	14	Sense Cable ID
PWRCABLEID	IQUANT	14	Power Cable ID
DCCALDATE	LABEL	11/25/2025	DC Calibration Date
ACCALDATE	LABEL	8/31/2018	AC Calibration Date
FRAMEWORKVERSION	QUANT	7.07	Framework Version
INSTRUMENTVERSION	LABEL	4.34	Instrument Version
ZCURVE	TABLE
	Pt	Time	Freq	Zreal	Zimag	Zsig	Zmod	Zphz	Idc	Vdc	IERange
	#	s	Hz	ohm	ohm	V	ohm	°	A	V	#
	0	8	1004.464	739.5507	-48.88903	1	741.1649	-3.782115	-4.182309E-005	-1.399695	8
	1	10	800.3049	725.9092	-57.36625	1	728.1724	-4.518508	-3.53482E-005	-1.399699	8
	2	13	631.0096	725.4293	-68.57909	1	728.6637	-5.400456	-3.102585E-005	-1.399704	8
	3	15	498.6702	737.6198	-82.69595	1	742.241	-6.396827	-2.829773E-005	-1.399706	8
	4	18	397.2458	747.1254	-99.4726	1	753.7182	-7.583784	-2.619036E-005	-1.399708	8
	5	20	319.6023	733.7233	-119.4175	1	743.3777	-9.24415	-2.475865E-005	-1.399712	8
	6	23	251.1161	735.8436	-146.9948	1	750.3821	-11.29691	-2.357611E-005	-1.399709	8
	7	25	200.8929	741.1197	-179.025	1	762.4358	-13.58023	-2.257838E-005	-1.399714	8
	8	28	158.0056	742.3749	-221.5896	1	774.7402	-16.61971	-2.183111E-005	-1.399714	8
	9	30	125.558	751.7951	-272.0652	1	799.5095	-19.89456	-2.116556E-005	-1.399714	8
	10	33	99.734	762.9301	-333.8897	1	832.7933	-23.63617	-2.062466E-005	-1.399712	8
	11	35	79.44915	779.5096	-408.9892	1	880.2882	-27.68487	-2.017558E-005	-1.399711	8
	12	38	63.34459	804.3354	-499.3501	1	946.7344	-31.83297	-1.97753E-005	-1.399713	8
	13	40	49.86702	849.512	-614.2225	1	1048.303	-35.86805	-1.93687E-005	-1.399712	8
	14	43	38.10976	922.2399	-771.3032	1	1202.262	-39.90698	-1.904307E-005	-1.399713	8
	15	45	31.25	992.383	-908.004	1	1345.101	-42.45767	-1.876144E-005	-1.399711	8
	16	48	24.93351	1110.227	-1083.381	1	1551.231	-44.29883	-1.851088E-005	-1.399712	8
	17	50	19.94681	1259.146	-1275.089	1	1792.01	-45.36047	-1.825788E-005	-1.399711	8
	18	53	15.57309	1484.816	-1500.629	1	2111.059	-45.30348	-1.80176E-005	-1.399711	8
	19	56	12.40079	1750.092	-1707.489	1	2445.065	-44.29407	-1.779046E-005	-1.399713	8
	20	59	9.91015	2082.153	-1900.036	1	2818.776	-42.38153	-1.754269E-005	-1.399713	8
	21	63	7.971939	2451.521	-2058.102	1	3200.896	-40.01414	-1.731256E-005	-1.399713	8
	22	67	6.351626	2889.91	-2175.478	1	3617.22	-36.97184	-1.707926E-005	-1.399713	8
	23	71	4.970838	3376.136	-2224.369	1	4043.033	-33.3789	-1.691274E-005	-1.399712	8
	24	76	3.942389	3837.059	-2222.76	1	4434.375	-30.08317	-1.672535E-005	-1.399712	8
	25	82	3.16723	4263.141	-2184.881	1	4790.415	-27.13537	-1.654407E-005	-1.399712	8
	26	88	2.485419	4716.225	-2114.803	1	5168.671	-24.15195	-1.635436E-005	-1.399719	8
	27	96	1.971194	5108.779	-2046.216	1	5503.328	-21.82755	-1.622089E-005	-1.399718	8
	28	105	1.605308	5449.235	-2018.758	1	5811.157	-20.32797	-1.609744E-005	-1.399718	8
	29	116	1.260081	5844.453	-2006.455	1	6179.279	-18.94782	-1.601354E-005	-1.399718	8
	30	129	1.001603	6167.523	-2003.973	1	6484.925	-18.0002	-1.603999E-005	-1.399718	8
