EXPLAIN
TAG	EISPOT
TITLE	LABEL	Potentiostatic EIS	Test &Identifier
DATE	LABEL	4/21/2026	Date
TIME	LABEL	16:20:36	Time
NOTES	NOTES	1	&Notes...
	
PSTAT	PSTAT	Rhea	Potentiostat
VDC	POTEN	-1.40000E+000	F	DC &Voltage (V)
FREQINIT	QUANT	1.00000E+003	Initial Fre&q. (Hz)
FREQFINAL	QUANT	1.00000E+000	Final Fre&q. (Hz)
PTSPERDEC	QUANT	1.00000E+001	Points/&decade
VAC	QUANT	1.00000E+001	AC &Voltage (mV rms)
AREA	QUANT	2.80000E-001	&Area (cm^2)
CONDIT	TWOPARAM	F	0.00000E+000	0.00000E+000	Conditionin&g	Time(s)	E(V)
DELAY	TWOPARAM	T	1.00000E+001	0.00000E+000	Init. De&lay	Time(s)	Stab.(mV/s)
SPEED	SELECTOR	2	&Optimize for:
ZGUESS	QUANT	2.86800E+005	E&stimated Z (ohms)
OCVCURVE	TABLE	40
	Pt	T	Vf	Vm	Ach	Over	Temp
	#	s	V vs. Ref.	V	V	bits	deg C
	0	0.25	-1.33524E-001	-1.33524E-001	0.00000E+000	...........	1415.46
	1	0.5	-1.33504E-001	-1.32519E-001	0.00000E+000	...........	1415.46
	2	0.75	-1.33386E-001	-1.31543E-001	0.00000E+000	...........	1415.46
	3	1	-1.33050E-001	-1.30592E-001	0.00000E+000	...........	1415.46
	4	1.25	-1.32443E-001	-1.29664E-001	0.00000E+000	...........	1415.46
	5	1.5	-1.31628E-001	-1.28755E-001	0.00000E+000	...........	1415.46
	6	1.75	-1.30708E-001	-1.27672E-001	0.00000E+000	...........	1415.46
	7	2	-1.29750E-001	-1.26786E-001	0.00000E+000	...........	1415.63
	8	2.25	-1.28782E-001	-1.25927E-001	0.00000E+000	...........	1415.63
	9	2.5	-1.27826E-001	-1.25089E-001	0.00000E+000	...........	1415.63
	10	2.75	-1.26901E-001	-1.24270E-001	0.00000E+000	...........	1415.63
	11	3	-1.26017E-001	-1.23479E-001	0.00000E+000	...........	1415.63
	12	3.25	-1.25169E-001	-1.22705E-001	0.00000E+000	...........	1415.63
	13	3.5	-1.24350E-001	-1.21942E-001	0.00000E+000	...........	1415.63
	14	3.75	-1.23553E-001	-1.21202E-001	0.00000E+000	...........	1415.63
	15	4	-1.22776E-001	-1.20482E-001	0.00000E+000	...........	1415.63
	16	4.25	-1.22016E-001	-1.19777E-001	0.00000E+000	...........	1415.63
	17	4.5	-1.21274E-001	-1.19086E-001	0.00000E+000	...........	1415.63
	18	4.75	-1.20550E-001	-1.18415E-001	0.00000E+000	...........	1415.63
	19	5	-1.19843E-001	-1.17754E-001	0.00000E+000	...........	1415.63
	20	5.25	-1.19153E-001	-1.17113E-001	0.00000E+000	...........	1415.63
	21	5.5	-1.18477E-001	-1.16481E-001	0.00000E+000	...........	1415.63
	22	5.75	-1.17817E-001	-1.15858E-001	0.00000E+000	...........	1415.63
	23	6	-1.17171E-001	-1.15262E-001	0.00000E+000	...........	1415.63
	24	6.25	-1.16539E-001	-1.14672E-001	0.00000E+000	...........	1415.63
	25	6.5	-1.15921E-001	-1.14099E-001	0.00000E+000	...........	1415.63
	26	6.75	-1.15317E-001	-1.13532E-001	0.00000E+000	...........	1415.63
	27	7	-1.14728E-001	-1.12978E-001	0.00000E+000	...........	1415.63
	28	7.25	-1.14150E-001	-1.12434E-001	0.00000E+000	...........	1415.63
	29	7.5	-1.13584E-001	-1.11905E-001	0.00000E+000	...........	1415.63
	30	7.75	-1.13030E-001	-1.11384E-001	0.00000E+000	...........	1415.63
	31	8	-1.12486E-001	-1.10881E-001	0.00000E+000	...........	1415.63
	32	8.25	-1.11955E-001	-1.10387E-001	0.00000E+000	...........	1415.63
	33	8.5	-1.11435E-001	-1.09897E-001	0.00000E+000	...........	1415.63
	34	8.75	-1.10927E-001	-1.09421E-001	0.00000E+000	...........	1415.63
	35	9	-1.10430E-001	-1.08959E-001	0.00000E+000	...........	1415.63
	36	9.25	-1.09944E-001	-1.08503E-001	0.00000E+000	...........	1415.63
	37	9.5	-1.09467E-001	-1.08055E-001	0.00000E+000	...........	1415.63
	38	9.75	-1.09001E-001	-1.07615E-001	0.00000E+000	...........	1415.63
	39	10	-1.08544E-001	-1.07182E-001	0.00000E+000	...........	1415.63
EOC	QUANT	-0.1085441	Open Circuit (V)
PSTATMODEL	IQUANT	64	Pstat Model
PSTATSECTION	LABEL	IFC1010-22099	Pstat Section
PSTATSERIALNO	LABEL	22099	Pstat Serial Number
CTRLMODE	IQUANT	1	Control Mode
ELECTROMETER	IQUANT	0	RE=0 or CS=1
IESTAB	IQUANT	0	I/E Stability
CASPEED	IQUANT	3	Control Amp Speed
CONVENTION	IQUANT	1	Current Convention
ICHRANGE	IQUANT	2	Ich Range
ICHRANGEMODE	TOGGLE	F	Ich Auto Range
ICHOFFSETENABLE	TOGGLE	T	Ich Offset Enable
ICHOFFSET	QUANT	0	Ich Offset (V)
ICHFILTER	IQUANT	4	Ich Filter
VCHRANGE	IQUANT	2	Vch Range
VCHRANGEMODE	TOGGLE	F	Vch Auto Range
VCHOFFSETENABLE	TOGGLE	T	Vch Offset Enable
VCHOFFSET	QUANT	0	Vch Offset (V)
VCHFILTER	IQUANT	4	Vch Filter
IERANGELOWERLIMIT	IQUANT	4	I/E Range Lower Limit
IERANGEMODE	TOGGLE	F	I/E AutoRange
IERANGE	IQUANT	7	I/E Range
ACHSELECT	IQUANT	0	Ach Select
ACHRANGE	IQUANT	2	Ach Range
ACHOFFSETENABLE	TOGGLE	F	Ach Offset Enable
ACHOFFSET	QUANT	0	Ach Offset (V)
ACHFILTER	IQUANT	1	Ach Filter
SENSECABLEID	IQUANT	14	Sense Cable ID
PWRCABLEID	IQUANT	14	Power Cable ID
DCCALDATE	LABEL	11/25/2025	DC Calibration Date
ACCALDATE	LABEL	9/8/2018	AC Calibration Date
FRAMEWORKVERSION	QUANT	7.07	Framework Version
INSTRUMENTVERSION	LABEL	4.34	Instrument Version
ZCURVE	TABLE
	Pt	Time	Freq	Zreal	Zimag	Zsig	Zmod	Zphz	Idc	Vdc	IERange
	#	s	Hz	ohm	ohm	V	ohm	°	A	V	#
	0	8	1004.464	472.1779	-46.5191	1	474.4639	-5.626639	-7.14517E-005	-1.400028	9
	1	10	800.3049	475.0836	-55.29858	1	478.2911	-6.639214	-6.937861E-005	-1.400028	9
	2	12	631.0096	478.7565	-67.0218	1	483.425	-7.969128	-6.860002E-005	-1.400028	9
	3	14	498.6702	482.7881	-80.52802	1	489.458	-9.469635	-6.773742E-005	-1.400024	9
	4	17	397.2458	487.4303	-96.5877	1	496.908	-11.20836	-6.732485E-005	-1.400026	9
	5	19	319.6023	492.5549	-115.2886	1	505.8674	-13.17363	-6.700303E-005	-1.400028	9
	6	22	251.1161	499.5144	-140.9002	1	519.0063	-15.7524	-6.6343E-005	-1.400025	9
	7	25	200.8929	507.5554	-170.3877	1	535.3918	-18.55704	-6.621594E-005	-1.400031	9
	8	27	158.0056	519.2047	-209.4669	1	559.866	-21.97102	-6.606268E-005	-1.40003	9
	9	30	125.558	534.4418	-255.5054	1	592.3774	-25.55148	-6.591999E-005	-1.400027	9
	10	32	99.734	555.4924	-311.8061	1	637.0203	-29.30614	-6.59468E-005	-1.400031	9
	11	34	79.44915	584.6868	-378.0851	1	696.2808	-32.88855	-6.573095E-005	-1.399985	8
	12	37	63.34459	625.0583	-456.0832	1	773.7634	-36.11692	-6.578892E-005	-1.399987	8
	13	39	49.86702	684.1243	-551.9935	1	879.0466	-38.89872	-6.584542E-005	-1.399987	8
	14	42	38.10976	778.7692	-671.2558	1	1028.137	-40.75951	-6.592436E-005	-1.399984	8
	15	44	31.25	871.71	-766.4828	1	1160.765	-41.32473	-6.60668E-005	-1.399986	8
	16	47	24.93351	1005.199	-873.1068	1	1331.443	-40.97728	-6.598182E-005	-1.399984	8
	17	49	19.94681	1166.926	-969	1	1516.799	-39.70579	-6.606934E-005	-1.399983	8
	18	52	15.57309	1376.592	-1053.391	1	1733.389	-37.42381	-6.59777E-005	-1.399984	8
	19	55	12.40079	1586.914	-1100.981	1	1931.438	-34.75242	-6.587923E-005	-1.399983	8
	20	58	9.91015	1797.53	-1119.232	1	2117.497	-31.90845	-6.638156E-005	-1.399982	8
	21	62	7.971939	1995.755	-1115.441	1	2286.317	-29.20111	-6.627918E-005	-1.399982	8
	22	66	6.351626	2190.94	-1091.273	1	2447.671	-26.47718	-6.657887E-005	-1.399982	8
	23	70	4.970838	2383.183	-1060.781	1	2608.604	-23.99439	-6.651477E-005	-1.399981	8
	24	75	3.942389	2550.705	-1032.093	1	2751.602	-22.02976	-6.653645E-005	-1.399981	8
	25	80	3.16723	2699.299	-1009.914	1	2882.038	-20.5128	-6.666114E-005	-1.399982	8
	26	87	2.485419	2867.325	-988.12	1	3032.81	-19.01466	-6.682603E-005	-1.399981	8
	27	95	1.971194	3021.508	-979.043	1	3176.167	-17.9536	-6.660886E-005	-1.399981	8
	28	104	1.605308	3158.538	-979.393	1	3306.898	-17.2275	-6.667054E-005	-1.399982	8
	29	115	1.260081	3302.514	-980.256	1	3444.924	-16.53201	-6.657612E-005	-1.399984	8
	30	128	1.001603	3440.491	-992.889	1	3580.894	-16.09757	-6.67907E-005	-1.399984	8
