EXPLAIN
TAG	EISPOT
TITLE	LABEL	Potentiostatic EIS	Test &Identifier
DATE	LABEL	4/21/2026	Date
TIME	LABEL	16:24:19	Time
NOTES	NOTES	1	&Notes...
	
PSTAT	PSTAT	Rhea	Potentiostat
VDC	POTEN	-1.60000E+000	F	DC &Voltage (V)
FREQINIT	QUANT	1.00000E+003	Initial Fre&q. (Hz)
FREQFINAL	QUANT	1.00000E+000	Final Fre&q. (Hz)
PTSPERDEC	QUANT	1.00000E+001	Points/&decade
VAC	QUANT	1.00000E+001	AC &Voltage (mV rms)
AREA	QUANT	2.80000E-001	&Area (cm^2)
CONDIT	TWOPARAM	F	0.00000E+000	0.00000E+000	Conditionin&g	Time(s)	E(V)
DELAY	TWOPARAM	T	1.00000E+001	0.00000E+000	Init. De&lay	Time(s)	Stab.(mV/s)
SPEED	SELECTOR	2	&Optimize for:
ZGUESS	QUANT	2.86800E+005	E&stimated Z (ohms)
OCVCURVE	TABLE	40
	Pt	T	Vf	Vm	Ach	Over	Temp
	#	s	V vs. Ref.	V	V	bits	deg C
	0	0.25	-1.14781E-001	-1.14781E-001	0.00000E+000	...........	1415.55
	1	0.5	-1.14780E-001	-1.14751E-001	0.00000E+000	...........	1415.55
	2	0.75	-1.14777E-001	-1.14718E-001	0.00000E+000	...........	1415.55
	3	1	-1.14766E-001	-1.14688E-001	0.00000E+000	...........	1415.55
	4	1.25	-1.14747E-001	-1.14656E-001	0.00000E+000	...........	1415.55
	5	1.5	-1.14721E-001	-1.14625E-001	0.00000E+000	...........	1415.55
	6	1.75	-1.14691E-001	-1.14592E-001	0.00000E+000	...........	1415.55
	7	2	-1.14659E-001	-1.14563E-001	0.00000E+000	...........	1415.55
	8	2.25	-1.14628E-001	-1.14532E-001	0.00000E+000	...........	1415.72
	9	2.5	-1.14596E-001	-1.14500E-001	0.00000E+000	...........	1415.72
	10	2.75	-1.14565E-001	-1.14470E-001	0.00000E+000	...........	1415.72
	11	3	-1.14534E-001	-1.14443E-001	0.00000E+000	...........	1415.72
	12	3.25	-1.14504E-001	-1.14413E-001	0.00000E+000	...........	1415.19
	13	3.5	-1.14474E-001	-1.14385E-001	0.00000E+000	...........	1415.19
	14	3.75	-1.14445E-001	-1.14355E-001	0.00000E+000	...........	1415.19
	15	4	-1.14415E-001	-1.14325E-001	0.00000E+000	...........	1415.19
	16	4.25	-1.14386E-001	-1.14297E-001	0.00000E+000	...........	1415.19
	17	4.5	-1.14357E-001	-1.14270E-001	0.00000E+000	...........	1415.19
	18	4.75	-1.14328E-001	-1.14241E-001	0.00000E+000	...........	1415.19
	19	5	-1.14300E-001	-1.14209E-001	0.00000E+000	...........	1415.19
	20	5.25	-1.14271E-001	-1.14180E-001	0.00000E+000	...........	1415.19
	21	5.5	-1.14242E-001	-1.14151E-001	0.00000E+000	...........	1415.19
	22	5.75	-1.14212E-001	-1.14124E-001	0.00000E+000	...........	1415.19
	23	6	-1.14183E-001	-1.14091E-001	0.00000E+000	...........	1415.19
	24	6.25	-1.14153E-001	-1.14043E-001	0.00000E+000	...........	1415.19
	25	6.5	-1.14122E-001	-1.14009E-001	0.00000E+000	...........	1415.19
	26	6.75	-1.14087E-001	-1.13977E-001	0.00000E+000	...........	1415.19
	27	7	-1.14051E-001	-1.13948E-001	0.00000E+000	...........	1415.19
	28	7.25	-1.14015E-001	-1.13915E-001	0.00000E+000	...........	1415.19
	29	7.5	-1.13981E-001	-1.13886E-001	0.00000E+000	...........	1415.19
	30	7.75	-1.13949E-001	-1.13857E-001	0.00000E+000	...........	1415.19
	31	8	-1.13919E-001	-1.13827E-001	0.00000E+000	...........	1415.19
	32	8.25	-1.13889E-001	-1.13801E-001	0.00000E+000	...........	1415.19
	33	8.5	-1.13859E-001	-1.13771E-001	0.00000E+000	...........	1415.19
	34	8.75	-1.13830E-001	-1.13741E-001	0.00000E+000	...........	1415.19
	35	9	-1.13802E-001	-1.13714E-001	0.00000E+000	...........	1415.19
	36	9.25	-1.13773E-001	-1.13683E-001	0.00000E+000	...........	1415.63
	37	9.5	-1.13744E-001	-1.13658E-001	0.00000E+000	...........	1415.63
	38	9.75	-1.13715E-001	-1.13631E-001	0.00000E+000	...........	1415.63
	39	10	-1.13687E-001	-1.13603E-001	0.00000E+000	...........	1415.63
EOC	QUANT	-0.1136873	Open Circuit (V)
PSTATMODEL	IQUANT	64	Pstat Model
PSTATSECTION	LABEL	IFC1010-22099	Pstat Section
PSTATSERIALNO	LABEL	22099	Pstat Serial Number
CTRLMODE	IQUANT	1	Control Mode
ELECTROMETER	IQUANT	0	RE=0 or CS=1
IESTAB	IQUANT	0	I/E Stability
CASPEED	IQUANT	3	Control Amp Speed
CONVENTION	IQUANT	1	Current Convention
ICHRANGE	IQUANT	2	Ich Range
ICHRANGEMODE	TOGGLE	F	Ich Auto Range
ICHOFFSETENABLE	TOGGLE	T	Ich Offset Enable
ICHOFFSET	QUANT	0	Ich Offset (V)
ICHFILTER	IQUANT	4	Ich Filter
VCHRANGE	IQUANT	2	Vch Range
VCHRANGEMODE	TOGGLE	F	Vch Auto Range
VCHOFFSETENABLE	TOGGLE	T	Vch Offset Enable
VCHOFFSET	QUANT	0	Vch Offset (V)
VCHFILTER	IQUANT	4	Vch Filter
IERANGELOWERLIMIT	IQUANT	4	I/E Range Lower Limit
IERANGEMODE	TOGGLE	F	I/E AutoRange
IERANGE	IQUANT	7	I/E Range
ACHSELECT	IQUANT	0	Ach Select
ACHRANGE	IQUANT	2	Ach Range
ACHOFFSETENABLE	TOGGLE	F	Ach Offset Enable
ACHOFFSET	QUANT	0	Ach Offset (V)
ACHFILTER	IQUANT	1	Ach Filter
SENSECABLEID	IQUANT	14	Sense Cable ID
PWRCABLEID	IQUANT	14	Power Cable ID
DCCALDATE	LABEL	11/25/2025	DC Calibration Date
ACCALDATE	LABEL	9/8/2018	AC Calibration Date
FRAMEWORKVERSION	QUANT	7.07	Framework Version
INSTRUMENTVERSION	LABEL	4.34	Instrument Version
ZCURVE	TABLE
	Pt	Time	Freq	Zreal	Zimag	Zsig	Zmod	Zphz	Idc	Vdc	IERange
	#	s	Hz	ohm	ohm	V	ohm	°	A	V	#
	0	9	1004.464	455.2919	-46.01124	1	457.6109	-5.770649	-0.0001047	-1.600048	9
	1	11	800.3049	458.231	-53.11766	1	461.2994	-6.612155	-0.000104	-1.60005	9
	2	14	631.0096	461.9424	-61.92028	1	466.074	-7.634606	-0.0001042	-1.600046	9
	3	16	498.6702	466.1848	-72.32313	1	471.7615	-8.818471	-0.0001048	-1.600044	9
	4	19	397.2458	470.8571	-84.5017	1	478.3795	-10.1742	-0.0001056	-1.600045	9
	5	21	319.6023	476.027	-98.6566	1	486.1429	-11.70879	-0.0001066	-1.600045	9
	6	24	251.1161	482.8952	-117.821	1	497.061	-13.71163	-0.0001076	-1.600047	9
	7	26	200.8929	490.9191	-139.5474	1	510.3675	-15.86819	-0.0001085	-1.600045	9
	8	28	158.0056	502.4249	-168.1682	1	529.822	-18.50607	-0.0001094	-1.600046	9
	9	31	125.558	517.2648	-201.1593	1	555.0027	-21.25058	-0.0001104	-1.600043	9
	10	33	99.734	537.5396	-240.3407	1	588.823	-24.09002	-0.0001113	-1.600045	9
	11	36	79.44915	565.473	-284.7	1	633.0986	-26.72399	-0.0001122	-1.600036	9
	12	38	63.34459	603.5909	-334.3586	1	690.0128	-28.98422	-0.0001129	-1.600034	9
	13	41	49.86702	656.4705	-389.0769	1	763.1083	-30.65437	-0.0001141	-1.600034	9
	14	44	38.10976	737.3435	-451.0292	1	864.3511	-31.45391	-0.0001151	-1.600036	9
	15	46	31.25	810.5613	-490.9101	1	947.6298	-31.20086	-0.0001159	-1.600034	9
	16	49	24.93351	906.3804	-524.3058	1	1047.102	-30.04771	-0.0001167	-1.600037	9
	17	51	19.94681	1010.15	-541.041	1	1145.918	-28.1737	-0.0001174	-1.600036	9
	18	53	15.57309	1127.233	-537.072	1	1248.639	-25.47555	-0.0001183	-1.600034	9
	19	56	12.40079	1227.65	-513.5211	1	1330.725	-22.69936	-0.0001193	-1.600035	9
	20	59	9.91015	1313.366	-475.8747	1	1396.921	-19.91708	-0.0001204	-1.600032	9
	21	63	7.971939	1361.567	-417.1617	1	1424.04	-17.0342	-0.0001229	-1.600036	9
	22	67	6.351626	1425.622	-373.4738	1	1473.73	-14.68003	-0.0001258	-1.600034	9
	23	72	4.970838	1466.027	-321.2059	1	1500.803	-12.3582	-0.000127	-1.600034	9
	24	79	3.942389	1486.457	-275.2804	1	1511.732	-10.49187	-0.0001282	-1.600034	9
	25	86	3.16723	1486.584	-232.0063	1	1504.579	-8.87041	-0.0001301	-1.600033	9
	26	94	2.485419	1492.393	-201.6728	1	1505.958	-7.695976	-0.0001325	-1.600037	9
	27	102	1.971194	1487.495	-172.8262	1	1497.502	-6.627255	-0.0001352	-1.600037	9
	28	113	1.605308	1464.949	-149.8055	1	1472.588	-5.838765	-0.0001378	-1.600035	9
	29	126	1.260081	1447.154	-128.7215	1	1452.868	-5.082967	-0.0001406	-1.600037	9
	30	142	1.001603	1561.536	-102.3444	1	1564.886	-3.749851	-0.0001391	-1.600037	9
