EXPLAIN
TAG	EISPOT
TITLE	LABEL	Potentiostatic EIS	Test &Identifier
DATE	LABEL	4/21/2026	Date
TIME	LABEL	15:16:59	Time
NOTES	NOTES	1	&Notes...
	
PSTAT	PSTAT	Titan	Potentiostat
VDC	POTEN	-1.20000E+000	F	DC &Voltage (V)
FREQINIT	QUANT	1.00000E+003	Initial Fre&q. (Hz)
FREQFINAL	QUANT	1.00000E+000	Final Fre&q. (Hz)
PTSPERDEC	QUANT	1.00000E+001	Points/&decade
VAC	QUANT	1.00000E+001	AC &Voltage (mV rms)
AREA	QUANT	2.80000E-001	&Area (cm^2)
CONDIT	TWOPARAM	F	0.00000E+000	0.00000E+000	Conditionin&g	Time(s)	E(V)
DELAY	TWOPARAM	T	1.00000E+001	0.00000E+000	Init. De&lay	Time(s)	Stab.(mV/s)
SPEED	SELECTOR	2	&Optimize for:
ZGUESS	QUANT	2.86800E+005	E&stimated Z (ohms)
OCVCURVE	TABLE	40
	Pt	T	Vf	Vm	Ach	Over	Temp
	#	s	V vs. Ref.	V	V	bits	deg C
	0	0.25	-1.31661E-001	-1.31661E-001	0.00000E+000	...........	1410.10
	1	0.5	-1.31659E-001	-1.31588E-001	0.00000E+000	...........	1410.10
	2	0.75	-1.31651E-001	-1.31539E-001	0.00000E+000	...........	1410.10
	3	1	-1.31629E-001	-1.31497E-001	0.00000E+000	...........	1409.93
	4	1.25	-1.31593E-001	-1.31437E-001	0.00000E+000	...........	1409.84
	5	1.5	-1.31547E-001	-1.31374E-001	0.00000E+000	...........	1409.84
	6	1.75	-1.31494E-001	-1.31304E-001	0.00000E+000	...........	1409.84
	7	2	-1.31437E-001	-1.31232E-001	0.00000E+000	...........	1410.06
	8	2.25	-1.31374E-001	-1.31159E-001	0.00000E+000	...........	1410.19
	9	2.5	-1.31308E-001	-1.31093E-001	0.00000E+000	...........	1410.19
	10	2.75	-1.31238E-001	-1.31018E-001	0.00000E+000	...........	1410.19
	11	3	-1.31167E-001	-1.30929E-001	0.00000E+000	...........	1410.19
	12	3.25	-1.31094E-001	-1.30863E-001	0.00000E+000	...........	1410.19
	13	3.5	-1.31019E-001	-1.30809E-001	0.00000E+000	...........	1410.19
	14	3.75	-1.30946E-001	-1.30754E-001	0.00000E+000	...........	1410.19
	15	4	-1.30878E-001	-1.30702E-001	0.00000E+000	...........	1410.19
	16	4.25	-1.30816E-001	-1.30649E-001	0.00000E+000	...........	1410.19
	17	4.5	-1.30759E-001	-1.30593E-001	0.00000E+000	...........	1410.19
	18	4.75	-1.30705E-001	-1.30539E-001	0.00000E+000	...........	1410.19
	19	5	-1.30652E-001	-1.30488E-001	0.00000E+000	...........	1410.19
	20	5.25	-1.30598E-001	-1.30428E-001	0.00000E+000	...........	1410.19
	21	5.5	-1.30544E-001	-1.30377E-001	0.00000E+000	...........	1410.19
	22	5.75	-1.30489E-001	-1.30323E-001	0.00000E+000	...........	1410.19
	23	6	-1.30435E-001	-1.30272E-001	0.00000E+000	...........	1410.19
	24	6.25	-1.30381E-001	-1.30221E-001	0.00000E+000	...........	1410.19
	25	6.5	-1.30329E-001	-1.30172E-001	0.00000E+000	...........	1410.19
	26	6.75	-1.30278E-001	-1.30164E-001	0.00000E+000	...........	1410.19
	27	7	-1.30231E-001	-1.30107E-001	0.00000E+000	...........	1410.19
	28	7.25	-1.30189E-001	-1.30046E-001	0.00000E+000	...........	1410.19
	29	7.5	-1.30148E-001	-1.29991E-001	0.00000E+000	...........	1410.19
	30	7.75	-1.30102E-001	-1.29938E-001	0.00000E+000	...........	1410.19
	31	8	-1.30051E-001	-1.29889E-001	0.00000E+000	...........	1410.19
	32	8.25	-1.29998E-001	-1.29837E-001	0.00000E+000	...........	1410.19
	33	8.5	-1.29945E-001	-1.29784E-001	0.00000E+000	...........	1410.19
	34	8.75	-1.29892E-001	-1.29735E-001	0.00000E+000	...........	1410.19
	35	9	-1.29841E-001	-1.29688E-001	0.00000E+000	...........	1410.19
	36	9.25	-1.29790E-001	-1.29642E-001	0.00000E+000	...........	1410.19
	37	9.5	-1.29741E-001	-1.29593E-001	0.00000E+000	...........	1410.19
	38	9.75	-1.29692E-001	-1.29546E-001	0.00000E+000	...........	1410.19
	39	10	-1.29645E-001	-1.29499E-001	0.00000E+000	...........	1410.19
EOC	QUANT	-0.1296445	Open Circuit (V)
PSTATMODEL	IQUANT	64	Pstat Model
PSTATSECTION	LABEL	IFC1010-22093	Pstat Section
PSTATSERIALNO	LABEL	22093	Pstat Serial Number
CTRLMODE	IQUANT	1	Control Mode
ELECTROMETER	IQUANT	0	RE=0 or CS=1
IESTAB	IQUANT	0	I/E Stability
CASPEED	IQUANT	3	Control Amp Speed
CONVENTION	IQUANT	1	Current Convention
ICHRANGE	IQUANT	2	Ich Range
ICHRANGEMODE	TOGGLE	F	Ich Auto Range
ICHOFFSETENABLE	TOGGLE	T	Ich Offset Enable
ICHOFFSET	QUANT	0	Ich Offset (V)
ICHFILTER	IQUANT	4	Ich Filter
VCHRANGE	IQUANT	2	Vch Range
VCHRANGEMODE	TOGGLE	F	Vch Auto Range
VCHOFFSETENABLE	TOGGLE	T	Vch Offset Enable
VCHOFFSET	QUANT	0	Vch Offset (V)
VCHFILTER	IQUANT	4	Vch Filter
IERANGELOWERLIMIT	IQUANT	4	I/E Range Lower Limit
IERANGEMODE	TOGGLE	F	I/E AutoRange
IERANGE	IQUANT	7	I/E Range
ACHSELECT	IQUANT	0	Ach Select
ACHRANGE	IQUANT	2	Ach Range
ACHOFFSETENABLE	TOGGLE	F	Ach Offset Enable
ACHOFFSET	QUANT	0	Ach Offset (V)
ACHFILTER	IQUANT	1	Ach Filter
SENSECABLEID	IQUANT	14	Sense Cable ID
PWRCABLEID	IQUANT	14	Power Cable ID
DCCALDATE	LABEL	11/25/2025	DC Calibration Date
ACCALDATE	LABEL	8/31/2018	AC Calibration Date
FRAMEWORKVERSION	QUANT	7.07	Framework Version
INSTRUMENTVERSION	LABEL	4.34	Instrument Version
ZCURVE	TABLE
	Pt	Time	Freq	Zreal	Zimag	Zsig	Zmod	Zphz	Idc	Vdc	IERange
	#	s	Hz	ohm	ohm	V	ohm	°	A	V	#
	0	7	1004.464	326.8168	-36.02427	1	328.7963	-6.290189	-4.051289E-005	-1.199667	8
	1	9	800.3049	328.0552	-43.97073	1	330.9889	-7.634114	-3.45276E-005	-1.199669	8
	2	12	631.0096	329.5045	-54.23671	1	333.9383	-9.34712	-3.061792E-005	-1.199674	8
	3	14	498.6702	331.1875	-66.88147	1	337.8732	-11.41701	-2.77478E-005	-1.199676	8
	4	17	397.2458	333.0296	-82.12006	1	343.0049	-13.85194	-2.563985E-005	-1.199678	8
	5	19	319.6023	335.0187	-100.042	1	349.6369	-16.62648	-2.40056E-005	-1.199676	8
	6	21	251.1161	337.673	-124.8543	1	360.0162	-20.29183	-2.267346E-005	-1.199678	8
	7	24	200.8929	340.5404	-153.5717	1	373.5666	-24.27369	-2.157945E-005	-1.199681	8
	8	26	158.0056	344.453	-192.1931	1	394.444	-29.16003	-2.060296E-005	-1.199679	8
	9	29	125.558	349.1057	-238.5762	1	422.8397	-34.34841	-1.983206E-005	-1.19968	8
	10	31	99.734	355.0948	-296.4933	1	462.602	-39.86086	-1.918991E-005	-1.199681	8
	11	33	79.44915	362.8925	-367.5812	1	516.5336	-45.36776	-1.86437E-005	-1.199678	8
	12	36	63.34459	372.9612	-455.5055	1	588.715	-50.68988	-1.815244E-005	-1.199676	8
	13	38	49.86702	387.3847	-571.3944	1	690.3322	-55.86415	-1.773056E-005	-1.199679	8
	14	41	38.10976	410.0992	-737.2312	1	843.6179	-60.91415	-1.735428E-005	-1.19968	8
	15	43	31.25	433.2409	-889.8277	1	989.692	-64.03939	-1.703273E-005	-1.199679	8
	16	45	24.93351	469.0588	-1102.119	1	1197.783	-66.94553	-1.673876E-005	-1.199681	8
	17	48	19.94681	518.569	-1361.213	1	1456.645	-69.14512	-1.647646E-005	-1.19968	8
	18	50	15.57309	598.6047	-1718.73	1	1819.99	-70.79764	-1.624184E-005	-1.19968	8
	19	53	12.40079	707.2388	-2127.534	1	2242.006	-71.61207	-1.600634E-005	-1.199679	8
	20	56	9.91015	862.8405	-2618.987	1	2757.46	-71.76524	-1.578443E-005	-1.19968	8
	21	59	7.971939	1081.713	-3193.572	1	3371.796	-71.28796	-1.559159E-005	-1.199681	8
	22	62	6.351626	1415.612	-3904.453	1	4153.157	-70.07121	-1.542237E-005	-1.199679	8
	23	65	4.970838	1946.805	-4795.342	1	5175.457	-67.90392	-1.527911E-005	-1.199679	8
	24	68	3.942389	2664.531	-5745.845	1	6333.597	-65.12135	-1.509625E-005	-1.19968	8
	25	74	3.16723	3591.545	-6689.483	1	7592.653	-61.76891	-1.493163E-005	-1.19968	8
	26	79	2.485419	4957.318	-7705.579	1	9162.475	-57.24514	-1.479372E-005	-1.199683	8
	27	87	1.971194	6561.675	-8514.814	1	10749.77	-52.38148	-1.467451E-005	-1.199684	8
	28	96	1.605308	8160.597	-9023.938	1	12166.63	-47.87609	-1.457166E-005	-1.199685	8
	29	107	1.260081	10179.16	-9299.828	1	13787.75	-42.41528	-1.448242E-005	-1.199686	8
	30	120	1.001603	12047.62	-9241.022	1	15183.6	-37.48969	-1.44023E-005	-1.199686	8
