EXPLAIN
TAG	EISPOT
TITLE	LABEL	Potentiostatic EIS	Test &Identifier
DATE	LABEL	4/21/2026	Date
TIME	LABEL	15:19:54	Time
NOTES	NOTES	1	&Notes...
	
PSTAT	PSTAT	Titan	Potentiostat
VDC	POTEN	-1.40000E+000	F	DC &Voltage (V)
FREQINIT	QUANT	1.00000E+003	Initial Fre&q. (Hz)
FREQFINAL	QUANT	1.00000E+000	Final Fre&q. (Hz)
PTSPERDEC	QUANT	1.00000E+001	Points/&decade
VAC	QUANT	1.00000E+001	AC &Voltage (mV rms)
AREA	QUANT	2.80000E-001	&Area (cm^2)
CONDIT	TWOPARAM	F	0.00000E+000	0.00000E+000	Conditionin&g	Time(s)	E(V)
DELAY	TWOPARAM	T	1.00000E+001	0.00000E+000	Init. De&lay	Time(s)	Stab.(mV/s)
SPEED	SELECTOR	2	&Optimize for:
ZGUESS	QUANT	2.86800E+005	E&stimated Z (ohms)
OCVCURVE	TABLE	40
	Pt	T	Vf	Vm	Ach	Over	Temp
	#	s	V vs. Ref.	V	V	bits	deg C
	0	0.25	-3.05169E-001	-3.05169E-001	0.00000E+000	...........	1410.89
	1	0.5	-3.05157E-001	-3.04589E-001	0.00000E+000	...........	1410.89
	2	0.75	-3.05089E-001	-3.04006E-001	0.00000E+000	...........	1410.36
	3	1	-3.04892E-001	-3.03436E-001	0.00000E+000	...........	1410.36
	4	1.25	-3.04535E-001	-3.02855E-001	0.00000E+000	...........	1410.36
	5	1.5	-3.04049E-001	-3.02292E-001	0.00000E+000	...........	1410.36
	6	1.75	-3.03495E-001	-3.01712E-001	0.00000E+000	...........	1410.36
	7	2	-3.02917E-001	-3.01154E-001	0.00000E+000	...........	1410.36
	8	2.25	-3.02339E-001	-3.00580E-001	0.00000E+000	...........	1410.36
	9	2.5	-3.01764E-001	-3.00018E-001	0.00000E+000	...........	1410.36
	10	2.75	-3.01195E-001	-2.99471E-001	0.00000E+000	...........	1410.27
	11	3	-3.00630E-001	-2.98911E-001	0.00000E+000	...........	1410.27
	12	3.25	-3.00068E-001	-2.98355E-001	0.00000E+000	...........	1410.27
	13	3.5	-2.99511E-001	-2.97821E-001	0.00000E+000	...........	1410.27
	14	3.75	-2.98957E-001	-2.97259E-001	0.00000E+000	...........	1410.27
	15	4	-2.98405E-001	-2.96729E-001	0.00000E+000	...........	1410.27
	16	4.25	-2.97857E-001	-2.96200E-001	0.00000E+000	...........	1410.27
	17	4.5	-2.97313E-001	-2.95654E-001	0.00000E+000	...........	1410.27
	18	4.75	-2.96773E-001	-2.95122E-001	0.00000E+000	...........	1410.36
	19	5	-2.96236E-001	-2.94601E-001	0.00000E+000	...........	1410.36
	20	5.25	-2.95701E-001	-2.94068E-001	0.00000E+000	...........	1410.36
	21	5.5	-2.95169E-001	-2.93529E-001	0.00000E+000	...........	1410.36
	22	5.75	-2.94638E-001	-2.93011E-001	0.00000E+000	...........	1410.36
	23	6	-2.94107E-001	-2.92495E-001	0.00000E+000	...........	1410.36
	24	6.25	-2.93580E-001	-2.91992E-001	0.00000E+000	...........	1410.36
	25	6.5	-2.93057E-001	-2.91475E-001	0.00000E+000	...........	1410.36
	26	6.75	-2.92541E-001	-2.90971E-001	0.00000E+000	...........	1410.27
	27	7	-2.92028E-001	-2.90466E-001	0.00000E+000	...........	1410.27
	28	7.25	-2.91519E-001	-2.89969E-001	0.00000E+000	...........	1410.27
	29	7.5	-2.91012E-001	-2.89467E-001	0.00000E+000	...........	1410.27
	30	7.75	-2.90509E-001	-2.88976E-001	0.00000E+000	...........	1410.36
	31	8	-2.90008E-001	-2.88476E-001	0.00000E+000	...........	1410.36
	32	8.25	-2.89510E-001	-2.88004E-001	0.00000E+000	...........	1410.36
	33	8.5	-2.89015E-001	-2.87505E-001	0.00000E+000	...........	1410.36
	34	8.75	-2.88523E-001	-2.87013E-001	0.00000E+000	...........	1410.36
	35	9	-2.88033E-001	-2.86529E-001	0.00000E+000	...........	1410.36
	36	9.25	-2.87544E-001	-2.86061E-001	0.00000E+000	...........	1410.36
	37	9.5	-2.87057E-001	-2.85575E-001	0.00000E+000	...........	1410.36
	38	9.75	-2.86574E-001	-2.85107E-001	0.00000E+000	...........	1410.36
	39	10	-2.86094E-001	-2.84636E-001	0.00000E+000	...........	1410.36
EOC	QUANT	-0.286094	Open Circuit (V)
PSTATMODEL	IQUANT	64	Pstat Model
PSTATSECTION	LABEL	IFC1010-22093	Pstat Section
PSTATSERIALNO	LABEL	22093	Pstat Serial Number
CTRLMODE	IQUANT	1	Control Mode
ELECTROMETER	IQUANT	0	RE=0 or CS=1
IESTAB	IQUANT	0	I/E Stability
CASPEED	IQUANT	3	Control Amp Speed
CONVENTION	IQUANT	1	Current Convention
ICHRANGE	IQUANT	2	Ich Range
ICHRANGEMODE	TOGGLE	F	Ich Auto Range
ICHOFFSETENABLE	TOGGLE	T	Ich Offset Enable
ICHOFFSET	QUANT	0	Ich Offset (V)
ICHFILTER	IQUANT	4	Ich Filter
VCHRANGE	IQUANT	2	Vch Range
VCHRANGEMODE	TOGGLE	F	Vch Auto Range
VCHOFFSETENABLE	TOGGLE	T	Vch Offset Enable
VCHOFFSET	QUANT	0	Vch Offset (V)
VCHFILTER	IQUANT	4	Vch Filter
IERANGELOWERLIMIT	IQUANT	4	I/E Range Lower Limit
IERANGEMODE	TOGGLE	F	I/E AutoRange
IERANGE	IQUANT	7	I/E Range
ACHSELECT	IQUANT	0	Ach Select
ACHRANGE	IQUANT	2	Ach Range
ACHOFFSETENABLE	TOGGLE	F	Ach Offset Enable
ACHOFFSET	QUANT	0	Ach Offset (V)
ACHFILTER	IQUANT	1	Ach Filter
SENSECABLEID	IQUANT	14	Sense Cable ID
PWRCABLEID	IQUANT	14	Power Cable ID
DCCALDATE	LABEL	11/25/2025	DC Calibration Date
ACCALDATE	LABEL	8/31/2018	AC Calibration Date
FRAMEWORKVERSION	QUANT	7.07	Framework Version
INSTRUMENTVERSION	LABEL	4.34	Instrument Version
ZCURVE	TABLE
	Pt	Time	Freq	Zreal	Zimag	Zsig	Zmod	Zphz	Idc	Vdc	IERange
	#	s	Hz	ohm	ohm	V	ohm	°	A	V	#
	0	6	1004.464	327.5744	-32.24543	1	329.1576	-5.621911	-3.082188E-005	-1.399706	8
	1	9	800.3049	328.7403	-39.30269	1	331.0814	-6.817661	-2.641055E-005	-1.399711	8
	2	11	631.0096	330.1974	-48.40318	1	333.7262	-8.339513	-2.390488E-005	-1.399711	8
	3	14	498.6702	331.9252	-59.55502	1	337.2256	-10.17195	-2.228108E-005	-1.39971	8
	4	16	397.2458	333.8296	-72.9632	1	341.7101	-12.32893	-2.106952E-005	-1.399714	8
	5	19	319.6023	335.8564	-88.76062	1	347.3874	-14.80375	-2.020635E-005	-1.399714	8
	6	22	251.1161	338.5751	-110.5494	1	356.1661	-18.08257	-1.957006E-005	-1.399718	8
	7	24	200.8929	341.6925	-135.7224	1	367.6606	-21.66329	-1.905933E-005	-1.399717	8
	8	27	158.0056	345.8364	-169.5546	1	385.1643	-26.11751	-1.867416E-005	-1.399718	8
	9	29	125.558	350.993	-210.119	1	409.0795	-30.90649	-1.835436E-005	-1.399719	8
	10	32	99.734	358.073	-260.6373	1	442.8861	-36.05045	-1.812217E-005	-1.399719	8
	11	34	79.44915	367.294	-322.5869	1	488.8427	-41.29218	-1.793087E-005	-1.399718	8
	12	36	63.34459	379.735	-398.8627	1	550.7178	-46.40729	-1.773115E-005	-1.399715	8
	13	39	49.86702	398.4175	-498.8356	1	638.4149	-51.38581	-1.755914E-005	-1.399714	8
	14	41	38.10976	428.7508	-640.5653	1	770.812	-56.20435	-1.741456E-005	-1.399715	8
	15	44	31.25	460.0748	-769.5133	1	896.5599	-59.12574	-1.728446E-005	-1.399716	8
	16	46	24.93351	509.4715	-946.1976	1	1074.64	-61.70016	-1.720284E-005	-1.399716	8
	17	49	19.94681	578.2009	-1158.115	1	1294.429	-63.46887	-1.710777E-005	-1.399717	8
	18	51	15.57309	687.8076	-1442.802	1	1598.361	-64.51209	-1.701533E-005	-1.399715	8
	19	54	12.40079	833.2587	-1756.593	1	1944.206	-64.62217	-1.694349E-005	-1.399716	8
	20	57	9.91015	1034.696	-2116.083	1	2355.505	-63.94287	-1.685666E-005	-1.399716	8
	21	60	7.971939	1302.667	-2509.874	1	2827.792	-62.56992	-1.676565E-005	-1.399714	8
	22	64	6.351626	1682.178	-2954.176	1	3399.541	-60.34179	-1.670412E-005	-1.399717	8
	23	68	4.970838	2223.77	-3443.581	1	4099.195	-57.14674	-1.663219E-005	-1.399716	8
	24	73	3.942389	2862.256	-3876.778	1	4818.912	-53.56125	-1.656974E-005	-1.399716	8
	25	79	3.16723	3564.595	-4231.146	1	5532.534	-49.88701	-1.65259E-005	-1.399717	8
	26	85	2.485419	4423.061	-4536.947	1	6336.194	-45.72821	-1.64826E-005	-1.399721	8
	27	93	1.971194	5263.415	-4737.907	1	7081.758	-41.99223	-1.650234E-005	-1.399723	8
	28	102	1.605308	6003.074	-4869.893	1	7729.99	-39.05011	-1.655807E-005	-1.399722	8
	29	113	1.260081	6870.246	-4984.473	1	8487.947	-35.96149	-1.664763E-005	-1.399721	8
	30	126	1.001603	7672.273	-5053.176	1	9186.858	-33.37003	-1.675494E-005	-1.399719	8
