EXPLAIN
TAG	EISPOT
TITLE	LABEL	Potentiostatic EIS	Test &Identifier
DATE	LABEL	4/21/2026	Date
TIME	LABEL	16:37:45	Time
NOTES	NOTES	1	&Notes...
	
PSTAT	PSTAT	Rhea	Potentiostat
VDC	POTEN	-1.60000E+000	F	DC &Voltage (V)
FREQINIT	QUANT	1.00000E+003	Initial Fre&q. (Hz)
FREQFINAL	QUANT	1.00000E+000	Final Fre&q. (Hz)
PTSPERDEC	QUANT	1.00000E+001	Points/&decade
VAC	QUANT	1.00000E+001	AC &Voltage (mV rms)
AREA	QUANT	2.80000E-001	&Area (cm^2)
CONDIT	TWOPARAM	F	0.00000E+000	0.00000E+000	Conditionin&g	Time(s)	E(V)
DELAY	TWOPARAM	T	1.00000E+001	0.00000E+000	Init. De&lay	Time(s)	Stab.(mV/s)
SPEED	SELECTOR	2	&Optimize for:
ZGUESS	QUANT	2.86800E+005	E&stimated Z (ohms)
OCVCURVE	TABLE	40
	Pt	T	Vf	Vm	Ach	Over	Temp
	#	s	V vs. Ref.	V	V	bits	deg C
	0	0.25	-8.79592E-002	-8.79592E-002	0.00000E+000	...........	1416.19
	1	0.5	-8.79546E-002	-8.77207E-002	0.00000E+000	...........	1415.90
	2	0.75	-8.79265E-002	-8.74856E-002	0.00000E+000	...........	1415.90
	3	1	-8.78464E-002	-8.72648E-002	0.00000E+000	...........	1415.90
	4	1.25	-8.77022E-002	-8.70464E-002	0.00000E+000	...........	1415.90
	5	1.5	-8.75094E-002	-8.68459E-002	0.00000E+000	...........	1415.90
	6	1.75	-8.72945E-002	-8.66428E-002	0.00000E+000	...........	1415.90
	7	2	-8.70770E-002	-8.64338E-002	0.00000E+000	...........	1415.90
	8	2.25	-8.68644E-002	-8.62253E-002	0.00000E+000	...........	1415.90
	9	2.5	-8.66558E-002	-8.60162E-002	0.00000E+000	...........	1415.90
	10	2.75	-8.64485E-002	-8.58095E-002	0.00000E+000	...........	1415.90
	11	3	-8.62419E-002	-8.56444E-002	0.00000E+000	...........	1415.90
	12	3.25	-8.60393E-002	-8.54841E-002	0.00000E+000	...........	1415.90
	13	3.5	-8.58460E-002	-8.52944E-002	0.00000E+000	...........	1415.90
	14	3.75	-8.56629E-002	-8.51175E-002	0.00000E+000	...........	1415.90
	15	4	-8.54857E-002	-8.49502E-002	0.00000E+000	...........	1415.90
	16	4.25	-8.53099E-002	-8.47551E-002	0.00000E+000	...........	1415.90
	17	4.5	-8.51338E-002	-8.46110E-002	0.00000E+000	...........	1415.90
	18	4.75	-8.49587E-002	-8.44483E-002	0.00000E+000	...........	1415.90
	19	5	-8.47878E-002	-8.42994E-002	0.00000E+000	...........	1415.90
	20	5.25	-8.46230E-002	-8.41317E-002	0.00000E+000	...........	1415.90
	21	5.5	-8.44631E-002	-8.39797E-002	0.00000E+000	...........	1415.90
	22	5.75	-8.43055E-002	-8.38292E-002	0.00000E+000	...........	1415.90
	23	6	-8.41490E-002	-8.36786E-002	0.00000E+000	...........	1415.90
	24	6.25	-8.39943E-002	-8.35283E-002	0.00000E+000	...........	1415.90
	25	6.5	-8.38418E-002	-8.33897E-002	0.00000E+000	...........	1415.90
	26	6.75	-8.36915E-002	-8.32297E-002	0.00000E+000	...........	1415.90
	27	7	-8.35433E-002	-8.31142E-002	0.00000E+000	...........	1415.90
	28	7.25	-8.33980E-002	-8.29822E-002	0.00000E+000	...........	1415.90
	29	7.5	-8.32573E-002	-8.28397E-002	0.00000E+000	...........	1415.90
	30	7.75	-8.31213E-002	-8.27175E-002	0.00000E+000	...........	1415.90
	31	8	-8.29881E-002	-8.25903E-002	0.00000E+000	...........	1415.90
	32	8.25	-8.28570E-002	-8.24690E-002	0.00000E+000	...........	1415.90
	33	8.5	-8.27284E-002	-8.23460E-002	0.00000E+000	...........	1415.90
	34	8.75	-8.26024E-002	-8.22227E-002	0.00000E+000	...........	1415.90
	35	9	-8.24785E-002	-8.21100E-002	0.00000E+000	...........	1415.90
	36	9.25	-8.23579E-002	-8.20690E-002	0.00000E+000	...........	1415.90
	37	9.5	-8.22459E-002	-8.19753E-002	0.00000E+000	...........	1415.90
	38	9.75	-8.21471E-002	-8.18667E-002	0.00000E+000	...........	1415.90
	39	10	-8.20571E-002	-8.17467E-002	0.00000E+000	...........	1415.90
EOC	QUANT	-0.0820571	Open Circuit (V)
PSTATMODEL	IQUANT	64	Pstat Model
PSTATSECTION	LABEL	IFC1010-22099	Pstat Section
PSTATSERIALNO	LABEL	22099	Pstat Serial Number
CTRLMODE	IQUANT	1	Control Mode
ELECTROMETER	IQUANT	0	RE=0 or CS=1
IESTAB	IQUANT	0	I/E Stability
CASPEED	IQUANT	3	Control Amp Speed
CONVENTION	IQUANT	1	Current Convention
ICHRANGE	IQUANT	2	Ich Range
ICHRANGEMODE	TOGGLE	F	Ich Auto Range
ICHOFFSETENABLE	TOGGLE	T	Ich Offset Enable
ICHOFFSET	QUANT	0	Ich Offset (V)
ICHFILTER	IQUANT	4	Ich Filter
VCHRANGE	IQUANT	2	Vch Range
VCHRANGEMODE	TOGGLE	F	Vch Auto Range
VCHOFFSETENABLE	TOGGLE	T	Vch Offset Enable
VCHOFFSET	QUANT	0	Vch Offset (V)
VCHFILTER	IQUANT	4	Vch Filter
IERANGELOWERLIMIT	IQUANT	4	I/E Range Lower Limit
IERANGEMODE	TOGGLE	F	I/E AutoRange
IERANGE	IQUANT	7	I/E Range
ACHSELECT	IQUANT	0	Ach Select
ACHRANGE	IQUANT	2	Ach Range
ACHOFFSETENABLE	TOGGLE	F	Ach Offset Enable
ACHOFFSET	QUANT	0	Ach Offset (V)
ACHFILTER	IQUANT	1	Ach Filter
SENSECABLEID	IQUANT	14	Sense Cable ID
PWRCABLEID	IQUANT	14	Power Cable ID
DCCALDATE	LABEL	11/25/2025	DC Calibration Date
ACCALDATE	LABEL	9/8/2018	AC Calibration Date
FRAMEWORKVERSION	QUANT	7.07	Framework Version
INSTRUMENTVERSION	LABEL	4.34	Instrument Version
ZCURVE	TABLE
	Pt	Time	Freq	Zreal	Zimag	Zsig	Zmod	Zphz	Idc	Vdc	IERange
	#	s	Hz	ohm	ohm	V	ohm	°	A	V	#
	0	7	1004.464	359.5551	-38.44099	1	361.6042	-6.102463	-8.4092E-005	-1.60006	9
	1	10	800.3049	361.5172	-45.49754	1	364.369	-7.173056	-8.343254E-005	-1.60006	9
	2	12	631.0096	364.1157	-54.88613	1	368.2292	-8.572124	-8.402028E-005	-1.600059	9
	3	15	498.6702	367.1654	-65.94133	1	373.0398	-10.18154	-8.495586E-005	-1.600058	9
	4	17	397.2458	370.764	-78.93476	1	379.0734	-12.01869	-8.611603E-005	-1.600057	9
	5	20	319.6023	375.1338	-94.15575	1	386.7695	-14.08975	-8.730533E-005	-1.600058	9
	6	22	251.1161	381.3745	-114.5162	1	398.1965	-16.71356	-8.853181E-005	-1.600058	9
	7	24	200.8929	389.4836	-137.8482	1	413.1581	-19.49017	-8.970693E-005	-1.600057	9
	8	27	158.0056	401.4453	-168.0738	1	435.2092	-22.71768	-9.086324E-005	-1.600056	9
	9	29	125.558	417.6267	-202.4488	1	464.1094	-25.86226	-9.207209E-005	-1.600056	9
	10	32	99.734	440.4812	-241.6322	1	502.404	-28.74759	-9.316974E-005	-1.600056	9
	11	34	79.44915	472.1416	-286.0727	1	552.0464	-31.21186	-9.432327E-005	-1.600047	9
	12	36	63.34459	514.6065	-332.6552	1	612.7637	-32.87969	-0.0000954	-1.600047	9
	13	39	49.86702	569.162	-381.2961	1	685.0782	-33.81913	-0.0000964	-1.600047	9
	14	41	38.10976	658.2593	-431.0648	1	786.8432	-33.21901	-0.0000974	-1.600047	9
	15	44	31.25	731.2227	-456.2811	1	861.9043	-31.96406	-0.0000985	-1.600047	9
	16	46	24.93351	822.4579	-472.929	1	948.7354	-29.89973	-0.0000996	-1.600046	9
	17	49	19.94681	914.0951	-471.6732	1	1028.613	-27.29374	-0.0001006	-1.600048	9
	18	52	15.57309	1010.075	-450.6676	1	1106.052	-24.04512	-0.0001018	-1.600046	9
	19	55	12.40079	1087.182	-417.1343	1	1164.46	-20.991	-0.0001029	-1.600045	9
	20	58	9.91015	1148.589	-376.1216	1	1208.605	-18.13175	-0.0001041	-1.600044	9
	21	62	7.971939	1193.285	-331.9584	1	1238.599	-15.54596	-0.0001054	-1.600047	9
	22	65	6.351626	1225.912	-286.9086	1	1259.038	-13.17225	-0.0001067	-1.600048	9
	23	70	4.970838	1247.925	-242.2789	1	1271.226	-10.98703	-0.0001082	-1.600046	9
	24	75	3.942389	1253.57	-204.5313	1	1270.146	-9.26667	-0.0001099	-1.600046	9
	25	80	3.16723	1254.433	-174.7908	1	1266.552	-7.932434	-0.0001115	-1.600046	9
	26	87	2.485419	1251.335	-150.7787	1	1260.386	-6.870688	-0.0001135	-1.600047	9
	27	95	1.971194	1238.333	-128.5427	1	1244.986	-5.926253	-0.0001159	-1.600046	9
	28	104	1.605308	1220.896	-112.6049	1	1226.078	-5.269561	-0.0001187	-1.600046	9
	29	115	1.260081	1202.641	-97.7004	1	1206.603	-4.644404	-0.0001219	-1.600045	9
	30	128	1.001603	1186.408	-87.53119	1	1189.632	-4.219542	-0.0001244	-1.600042	9
