EXPLAIN
TAG	EISPOT
TITLE	LABEL	Potentiostatic EIS	Test &Identifier
DATE	LABEL	4/21/2026	Date
TIME	LABEL	15:52:26	Time
NOTES	NOTES	1	&Notes...
	
PSTAT	PSTAT	Rhea	Potentiostat
VDC	POTEN	-1.40000E+000	F	DC &Voltage (V)
FREQINIT	QUANT	1.00000E+003	Initial Fre&q. (Hz)
FREQFINAL	QUANT	1.00000E+000	Final Fre&q. (Hz)
PTSPERDEC	QUANT	1.00000E+001	Points/&decade
VAC	QUANT	1.00000E+001	AC &Voltage (mV rms)
AREA	QUANT	2.80000E-001	&Area (cm^2)
CONDIT	TWOPARAM	F	0.00000E+000	0.00000E+000	Conditionin&g	Time(s)	E(V)
DELAY	TWOPARAM	T	1.00000E+001	0.00000E+000	Init. De&lay	Time(s)	Stab.(mV/s)
SPEED	SELECTOR	2	&Optimize for:
ZGUESS	QUANT	2.86800E+005	E&stimated Z (ohms)
OCVCURVE	TABLE	40
	Pt	T	Vf	Vm	Ach	Over	Temp
	#	s	V vs. Ref.	V	V	bits	deg C
	0	0.25	-8.25795E-002	-8.25795E-002	0.00000E+000	...........	1412.64
	1	0.5	-8.25786E-002	-8.25367E-002	0.00000E+000	...........	1412.64
	2	0.75	-8.25734E-002	-8.24850E-002	0.00000E+000	...........	1412.21
	3	1	-8.25580E-002	-8.24426E-002	0.00000E+000	...........	1412.21
	4	1.25	-8.25298E-002	-8.24011E-002	0.00000E+000	...........	1412.21
	5	1.5	-8.24915E-002	-8.23571E-002	0.00000E+000	...........	1412.21
	6	1.75	-8.24487E-002	-8.23154E-002	0.00000E+000	...........	1412.38
	7	2	-8.24048E-002	-8.22722E-002	0.00000E+000	...........	1412.38
	8	2.25	-8.23614E-002	-8.22311E-002	0.00000E+000	...........	1412.38
	9	2.5	-8.23185E-002	-8.21884E-002	0.00000E+000	...........	1412.38
	10	2.75	-8.22761E-002	-8.21483E-002	0.00000E+000	...........	1412.38
	11	3	-8.22342E-002	-8.21069E-002	0.00000E+000	...........	1412.38
	12	3.25	-8.21926E-002	-8.20678E-002	0.00000E+000	...........	1412.38
	13	3.5	-8.21514E-002	-8.20236E-002	0.00000E+000	...........	1412.38
	14	3.75	-8.21105E-002	-8.19862E-002	0.00000E+000	...........	1412.38
	15	4	-8.20697E-002	-8.19470E-002	0.00000E+000	...........	1412.38
	16	4.25	-8.20292E-002	-8.19094E-002	0.00000E+000	...........	1412.38
	17	4.5	-8.19896E-002	-8.18746E-002	0.00000E+000	...........	1412.38
	18	4.75	-8.19510E-002	-8.18380E-002	0.00000E+000	...........	1412.38
	19	5	-8.19136E-002	-8.18027E-002	0.00000E+000	...........	1412.38
	20	5.25	-8.18771E-002	-8.17677E-002	0.00000E+000	...........	1412.38
	21	5.5	-8.18412E-002	-8.17340E-002	0.00000E+000	...........	1412.38
	22	5.75	-8.18058E-002	-8.16973E-002	0.00000E+000	...........	1412.38
	23	6	-8.17708E-002	-8.16660E-002	0.00000E+000	...........	1412.38
	24	6.25	-8.17361E-002	-8.16310E-002	0.00000E+000	...........	1412.38
	25	6.5	-8.17017E-002	-8.15961E-002	0.00000E+000	...........	1412.38
	26	6.75	-8.16676E-002	-8.15639E-002	0.00000E+000	...........	1412.38
	27	7	-8.16336E-002	-8.15287E-002	0.00000E+000	...........	1412.38
	28	7.25	-8.16004E-002	-8.15382E-002	0.00000E+000	...........	1412.38
	29	7.5	-8.15709E-002	-8.15123E-002	0.00000E+000	...........	1412.38
	30	7.75	-8.15474E-002	-8.14855E-002	0.00000E+000	...........	1412.38
	31	8	-8.15280E-002	-8.14578E-002	0.00000E+000	...........	1412.38
	32	8.25	-8.15082E-002	-8.14285E-002	0.00000E+000	...........	1412.38
	33	8.5	-8.14852E-002	-8.13960E-002	0.00000E+000	...........	1412.38
	34	8.75	-8.14586E-002	-8.13637E-002	0.00000E+000	...........	1412.38
	35	9	-8.14294E-002	-8.13337E-002	0.00000E+000	...........	1412.38
	36	9.25	-8.13987E-002	-8.13049E-002	0.00000E+000	...........	1412.38
	37	9.5	-8.13675E-002	-8.12706E-002	0.00000E+000	...........	1412.38
	38	9.75	-8.13365E-002	-8.12425E-002	0.00000E+000	...........	1412.38
	39	10	-8.13057E-002	-8.12141E-002	0.00000E+000	...........	1412.38
EOC	QUANT	-0.0813057	Open Circuit (V)
PSTATMODEL	IQUANT	64	Pstat Model
PSTATSECTION	LABEL	IFC1010-22099	Pstat Section
PSTATSERIALNO	LABEL	22099	Pstat Serial Number
CTRLMODE	IQUANT	1	Control Mode
ELECTROMETER	IQUANT	0	RE=0 or CS=1
IESTAB	IQUANT	0	I/E Stability
CASPEED	IQUANT	3	Control Amp Speed
CONVENTION	IQUANT	1	Current Convention
ICHRANGE	IQUANT	2	Ich Range
ICHRANGEMODE	TOGGLE	F	Ich Auto Range
ICHOFFSETENABLE	TOGGLE	T	Ich Offset Enable
ICHOFFSET	QUANT	0	Ich Offset (V)
ICHFILTER	IQUANT	4	Ich Filter
VCHRANGE	IQUANT	2	Vch Range
VCHRANGEMODE	TOGGLE	F	Vch Auto Range
VCHOFFSETENABLE	TOGGLE	T	Vch Offset Enable
VCHOFFSET	QUANT	0	Vch Offset (V)
VCHFILTER	IQUANT	4	Vch Filter
IERANGELOWERLIMIT	IQUANT	4	I/E Range Lower Limit
IERANGEMODE	TOGGLE	F	I/E AutoRange
IERANGE	IQUANT	7	I/E Range
ACHSELECT	IQUANT	0	Ach Select
ACHRANGE	IQUANT	2	Ach Range
ACHOFFSETENABLE	TOGGLE	F	Ach Offset Enable
ACHOFFSET	QUANT	0	Ach Offset (V)
ACHFILTER	IQUANT	1	Ach Filter
SENSECABLEID	IQUANT	14	Sense Cable ID
PWRCABLEID	IQUANT	14	Power Cable ID
DCCALDATE	LABEL	11/25/2025	DC Calibration Date
ACCALDATE	LABEL	9/8/2018	AC Calibration Date
FRAMEWORKVERSION	QUANT	7.07	Framework Version
INSTRUMENTVERSION	LABEL	4.34	Instrument Version
ZCURVE	TABLE
	Pt	Time	Freq	Zreal	Zimag	Zsig	Zmod	Zphz	Idc	Vdc	IERange
	#	s	Hz	ohm	ohm	V	ohm	°	A	V	#
	0	8	1004.464	310.7896	-42.19576	1	313.6409	-7.731746	-5.60378E-005	-1.39994	9
	1	10	800.3049	312.7494	-50.65468	1	316.825	-9.200058	-5.387664E-005	-1.399941	9
	2	13	631.0096	315.0708	-61.53207	1	321.0231	-11.05055	-5.268097E-005	-1.39994	9
	3	16	498.6702	317.6714	-74.85396	1	326.3713	-13.25893	-5.197656E-005	-1.399941	9
	4	18	397.2458	320.5918	-90.85658	1	333.2177	-15.82287	-5.145403E-005	-1.399939	9
	5	21	319.6023	324.0053	-109.7808	1	342.0983	-18.71762	-5.113102E-005	-1.399941	9
	6	23	251.1161	328.8636	-135.8886	1	355.8328	-22.45074	-5.092792E-005	-1.39994	9
	7	26	200.8929	334.7503	-165.9744	1	373.6379	-26.37292	-5.090432E-005	-1.399938	9
	8	28	158.0056	343.4389	-206.262	1	400.6174	-30.98811	-5.046772E-005	-1.399911	8
	9	31	125.558	355.1384	-253.9978	1	436.6213	-35.57265	-5.043396E-005	-1.399912	8
	10	33	99.734	371.588	-312.7301	1	485.6725	-40.08411	-5.041215E-005	-1.399914	8
	11	36	79.44915	394.4263	-383.0024	1	549.7844	-44.15813	-5.046112E-005	-1.399902	8
	12	38	63.34459	426.5476	-467.2263	1	632.6478	-47.60593	-5.054483E-005	-1.399904	8
	13	41	49.86702	474.7728	-573.0908	1	744.2058	-50.3602	-5.048585E-005	-1.399904	8
	14	43	38.10976	553.7985	-714.6847	1	904.1388	-52.22843	-5.044683E-005	-1.399905	8
	15	46	31.25	633.9771	-833.1888	1	1046.963	-52.73233	-5.062294E-005	-1.399905	8
	16	48	24.93351	755.3953	-980.227	1	1237.524	-52.38096	-5.062721E-005	-1.399905	8
	17	51	19.94681	912.0887	-1132.338	1	1453.993	-51.14884	-5.065223E-005	-1.399903	8
	18	54	15.57309	1134.441	-1295.736	1	1722.175	-48.79727	-5.062902E-005	-1.399904	8
	19	57	12.40079	1382.67	-1425.974	1	1986.247	-45.88334	-5.07972E-005	-1.399902	8
	20	60	9.91015	1658.033	-1526.885	1	2253.985	-42.64202	-5.086893E-005	-1.399903	8
	21	64	7.971939	1940.009	-1589.973	1	2508.315	-39.33701	-5.091023E-005	-1.399904	8
	22	68	6.351626	2242.356	-1618.595	1	2765.503	-35.82281	-5.100033E-005	-1.399904	8
	23	72	4.970838	2554.151	-1619.163	1	3024.132	-32.372	-5.107004E-005	-1.399904	8
	24	77	3.942389	2830.498	-1605.394	1	3254.075	-29.56092	-5.128534E-005	-1.399907	8
	25	82	3.16723	3080.36	-1592.253	1	3467.547	-27.33466	-5.157009E-005	-1.399907	8
	26	89	2.485419	3341.74	-1570.016	1	3692.177	-25.16507	-5.173904E-005	-1.399905	8
	27	97	1.971194	3594.359	-1578.891	1	3925.853	-23.71441	-5.185917E-005	-1.399905	8
	28	106	1.605308	3776.135	-1552.425	1	4082.795	-22.3483	-5.27574E-005	-1.399907	8
	29	117	1.260081	4028.572	-1579.898	1	4327.294	-21.41378	-5.320171E-005	-1.399909	8
	30	130	1.001603	4286.243	-1611.791	1	4579.274	-20.60818	-5.32934E-005	-1.399909	8
