EXPLAIN
TAG	EISPOT
TITLE	LABEL	Potentiostatic EIS	Test &Identifier
DATE	LABEL	4/21/2026	Date
TIME	LABEL	16:17:51	Time
NOTES	NOTES	1	&Notes...
	
PSTAT	PSTAT	Rhea	Potentiostat
VDC	POTEN	-1.20000E+000	F	DC &Voltage (V)
FREQINIT	QUANT	1.00000E+003	Initial Fre&q. (Hz)
FREQFINAL	QUANT	1.00000E+000	Final Fre&q. (Hz)
PTSPERDEC	QUANT	1.00000E+001	Points/&decade
VAC	QUANT	1.00000E+001	AC &Voltage (mV rms)
AREA	QUANT	2.80000E-001	&Area (cm^2)
CONDIT	TWOPARAM	F	0.00000E+000	0.00000E+000	Conditionin&g	Time(s)	E(V)
DELAY	TWOPARAM	T	1.00000E+001	0.00000E+000	Init. De&lay	Time(s)	Stab.(mV/s)
SPEED	SELECTOR	2	&Optimize for:
ZGUESS	QUANT	2.86800E+005	E&stimated Z (ohms)
OCVCURVE	TABLE	40
	Pt	T	Vf	Vm	Ach	Over	Temp
	#	s	V vs. Ref.	V	V	bits	deg C
	0	0.25	6.20789E-002	6.20789E-002	0.00000E+000	...........	1415.46
	1	0.5	6.20869E-002	6.24951E-002	0.00000E+000	...........	1415.46
	2	0.75	6.21363E-002	6.29229E-002	0.00000E+000	...........	1415.46
	3	1	6.22788E-002	6.33591E-002	0.00000E+000	...........	1415.46
	4	1.25	6.25405E-002	6.38025E-002	0.00000E+000	...........	1415.19
	5	1.5	6.29013E-002	6.42580E-002	0.00000E+000	...........	1415.19
	6	1.75	6.33205E-002	6.47156E-002	0.00000E+000	...........	1415.19
	7	2	6.37662E-002	6.51754E-002	0.00000E+000	...........	1415.19
	8	2.25	6.42216E-002	6.56376E-002	0.00000E+000	...........	1415.11
	9	2.5	6.46804E-002	6.61007E-002	0.00000E+000	...........	1415.11
	10	2.75	6.51409E-002	6.65678E-002	0.00000E+000	...........	1415.11
	11	3	6.56029E-002	6.70350E-002	0.00000E+000	...........	1415.11
	12	3.25	6.60667E-002	6.75023E-002	0.00000E+000	...........	1415.37
	13	3.5	6.65321E-002	6.79628E-002	0.00000E+000	...........	1415.37
	14	3.75	6.69978E-002	6.84196E-002	0.00000E+000	...........	1415.37
	15	4	6.74622E-002	6.88782E-002	0.00000E+000	...........	1415.37
	16	4.25	6.79241E-002	6.93303E-002	0.00000E+000	...........	1415.11
	17	4.5	6.83832E-002	6.97766E-002	0.00000E+000	...........	1415.11
	18	4.75	6.88391E-002	7.02197E-002	0.00000E+000	...........	1415.11
	19	5	6.92910E-002	7.06552E-002	0.00000E+000	...........	1415.11
	20	5.25	6.97382E-002	7.10811E-002	0.00000E+000	...........	1415.46
	21	5.5	7.01797E-002	7.14953E-002	0.00000E+000	...........	1415.46
	22	5.75	7.06140E-002	7.19022E-002	0.00000E+000	...........	1415.46
	23	6	7.10397E-002	7.22955E-002	0.00000E+000	...........	1415.46
	24	6.25	7.14558E-002	7.26789E-002	0.00000E+000	...........	1415.11
	25	6.5	7.18618E-002	7.30605E-002	0.00000E+000	...........	1415.11
	26	6.75	7.22580E-002	7.34326E-002	0.00000E+000	...........	1415.11
	27	7	7.26455E-002	7.37962E-002	0.00000E+000	...........	1415.11
	28	7.25	7.30253E-002	7.41528E-002	0.00000E+000	...........	1415.11
	29	7.5	7.33976E-002	7.45038E-002	0.00000E+000	...........	1415.11
	30	7.75	7.37626E-002	7.48457E-002	0.00000E+000	...........	1415.11
	31	8	7.41202E-002	7.51807E-002	0.00000E+000	...........	1415.11
	32	8.25	7.44706E-002	7.55101E-002	0.00000E+000	...........	1415.11
	33	8.5	7.48139E-002	7.58387E-002	0.00000E+000	...........	1415.11
	34	8.75	7.51508E-002	7.61544E-002	0.00000E+000	...........	1415.11
	35	9	7.54817E-002	7.64653E-002	0.00000E+000	...........	1415.11
	36	9.25	7.58066E-002	7.67747E-002	0.00000E+000	...........	1415.11
	37	9.5	7.61255E-002	7.70789E-002	0.00000E+000	...........	1415.11
	38	9.75	7.64389E-002	7.73769E-002	0.00000E+000	...........	1415.11
	39	10	7.67474E-002	7.76713E-002	0.00000E+000	...........	1415.11
EOC	QUANT	0.0767474	Open Circuit (V)
PSTATMODEL	IQUANT	64	Pstat Model
PSTATSECTION	LABEL	IFC1010-22099	Pstat Section
PSTATSERIALNO	LABEL	22099	Pstat Serial Number
CTRLMODE	IQUANT	1	Control Mode
ELECTROMETER	IQUANT	0	RE=0 or CS=1
IESTAB	IQUANT	0	I/E Stability
CASPEED	IQUANT	3	Control Amp Speed
CONVENTION	IQUANT	1	Current Convention
ICHRANGE	IQUANT	2	Ich Range
ICHRANGEMODE	TOGGLE	F	Ich Auto Range
ICHOFFSETENABLE	TOGGLE	T	Ich Offset Enable
ICHOFFSET	QUANT	0	Ich Offset (V)
ICHFILTER	IQUANT	4	Ich Filter
VCHRANGE	IQUANT	2	Vch Range
VCHRANGEMODE	TOGGLE	F	Vch Auto Range
VCHOFFSETENABLE	TOGGLE	T	Vch Offset Enable
VCHOFFSET	QUANT	0	Vch Offset (V)
VCHFILTER	IQUANT	4	Vch Filter
IERANGELOWERLIMIT	IQUANT	4	I/E Range Lower Limit
IERANGEMODE	TOGGLE	F	I/E AutoRange
IERANGE	IQUANT	7	I/E Range
ACHSELECT	IQUANT	0	Ach Select
ACHRANGE	IQUANT	2	Ach Range
ACHOFFSETENABLE	TOGGLE	F	Ach Offset Enable
ACHOFFSET	QUANT	0	Ach Offset (V)
ACHFILTER	IQUANT	1	Ach Filter
SENSECABLEID	IQUANT	14	Sense Cable ID
PWRCABLEID	IQUANT	14	Power Cable ID
DCCALDATE	LABEL	11/25/2025	DC Calibration Date
ACCALDATE	LABEL	9/8/2018	AC Calibration Date
FRAMEWORKVERSION	QUANT	7.07	Framework Version
INSTRUMENTVERSION	LABEL	4.34	Instrument Version
ZCURVE	TABLE
	Pt	Time	Freq	Zreal	Zimag	Zsig	Zmod	Zphz	Idc	Vdc	IERange
	#	s	Hz	ohm	ohm	V	ohm	°	A	V	#
	0	8	1004.464	506.4521	-56.47715	1	509.5915	-6.363066	-4.646809E-005	-1.199983	8
	1	10	800.3049	506.7714	-67.80479	1	511.2873	-7.620777	-4.483488E-005	-1.199985	8
	2	13	631.0096	508.234	-82.2574	1	514.8477	-9.193568	-4.413478E-005	-1.199979	8
	3	15	498.6702	510.2766	-99.595	1	519.9052	-11.04405	-4.389757E-005	-1.199982	8
	4	17	397.2458	513.2653	-120.3274	1	527.1811	-13.19388	-4.392895E-005	-1.199981	8
	5	20	319.6023	516.7488	-144.7038	1	536.627	-15.6437	-4.401787E-005	-1.199983	8
	6	23	251.1161	520.9993	-178.3972	1	550.6958	-18.90189	-4.411759E-005	-1.199978	8
	7	25	200.8929	526.3774	-217.3273	1	569.4773	-22.43444	-4.432357E-005	-1.199979	8
	8	28	158.0056	534.1076	-269.6304	1	598.3072	-26.78575	-4.460335E-005	-1.199981	8
	9	30	125.558	544.4684	-332.0518	1	637.7337	-31.37752	-4.374983E-005	-1.19998	8
	10	33	99.734	559.3697	-409.5626	1	693.2791	-36.21106	-4.365827E-005	-1.199981	8
	11	35	79.44915	579.7133	-504.4053	1	768.4349	-41.02635	-4.369953E-005	-1.19997	8
	12	38	63.34459	608.7021	-620.6312	1	869.3109	-45.55596	-4.387266E-005	-1.199969	8
	13	40	49.86702	653.7752	-772.126	1	1011.732	-49.74472	-4.389343E-005	-1.19997	8
	14	42	38.10976	730.4309	-980.96	1	1223.034	-53.32833	-4.398659E-005	-1.199971	8
	15	45	31.25	812.4833	-1165.664	1	1420.881	-55.12299	-4.422649E-005	-1.19997	8
	16	47	24.93351	944.2598	-1411.887	1	1698.544	-56.22568	-4.414104E-005	-1.199971	8
	17	50	19.94681	1133.317	-1690.037	1	2034.855	-56.15471	-4.416782E-005	-1.199973	8
	18	52	15.57309	1429.955	-2023.791	1	2478.003	-54.75602	-4.417894E-005	-1.199974	8
	19	55	12.40079	1806.918	-2332.53	1	2950.533	-52.23647	-4.4205E-005	-1.199972	8
	20	58	9.91015	2281.596	-2600.035	1	3459.171	-48.73224	-4.417516E-005	-1.199973	8
	21	62	7.971939	2833.043	-2766.005	1	3959.409	-44.31403	-4.417264E-005	-1.199971	8
	22	66	6.351626	3448.241	-2845.466	1	4470.688	-39.52923	-4.380357E-005	-1.199972	8
	23	70	4.970838	4101.487	-2748.862	1	4937.453	-33.83043	-4.385427E-005	-1.199974	8
	24	75	3.942389	4637.079	-2571.588	1	5302.411	-29.01147	-4.402653E-005	-1.199974	8
	25	80	3.16723	5053.795	-2358.54	1	5577.057	-25.01785	-4.415102E-005	-1.199972	8
	26	87	2.485419	5392.243	-2116.151	1	5792.614	-21.42721	-4.431913E-005	-1.199972	8
	27	95	1.971194	5616.636	-1901.508	1	5929.784	-18.70349	-4.485601E-005	-1.199973	8
	28	104	1.605308	5792.608	-1774.179	1	6058.22	-17.02895	-4.536289E-005	-1.199971	8
	29	115	1.260081	5966.112	-1675.125	1	6196.816	-15.68332	-4.593612E-005	-1.199972	8
	30	128	1.001603	6092.926	-1621.836	1	6305.085	-14.90557	-4.684997E-005	-1.199971	8
