EXPLAIN
TAG	EISPOT
TITLE	LABEL	Potentiostatic EIS	Test &Identifier
DATE	LABEL	4/21/2026	Date
TIME	LABEL	15:56:08	Time
NOTES	NOTES	1	&Notes...
	
PSTAT	PSTAT	Titan	Potentiostat
VDC	POTEN	-1.60000E+000	F	DC &Voltage (V)
FREQINIT	QUANT	1.00000E+003	Initial Fre&q. (Hz)
FREQFINAL	QUANT	1.00000E+000	Final Fre&q. (Hz)
PTSPERDEC	QUANT	1.00000E+001	Points/&decade
VAC	QUANT	1.00000E+001	AC &Voltage (mV rms)
AREA	QUANT	2.80000E-001	&Area (cm^2)
CONDIT	TWOPARAM	F	0.00000E+000	0.00000E+000	Conditionin&g	Time(s)	E(V)
DELAY	TWOPARAM	T	1.00000E+001	0.00000E+000	Init. De&lay	Time(s)	Stab.(mV/s)
SPEED	SELECTOR	2	&Optimize for:
ZGUESS	QUANT	2.86800E+005	E&stimated Z (ohms)
OCVCURVE	TABLE	40
	Pt	T	Vf	Vm	Ach	Over	Temp
	#	s	V vs. Ref.	V	V	bits	deg C
	0	0.25	-2.83297E-001	-2.83297E-001	0.00000E+000	...........	1411.24
	1	0.5	-2.83292E-001	-2.83026E-001	0.00000E+000	...........	1411.24
	2	0.75	-2.83260E-001	-2.82762E-001	0.00000E+000	...........	1410.71
	3	1	-2.83168E-001	-2.82465E-001	0.00000E+000	...........	1410.71
	4	1.25	-2.83000E-001	-2.82171E-001	0.00000E+000	...........	1410.71
	5	1.5	-2.82766E-001	-2.81909E-001	0.00000E+000	...........	1410.71
	6	1.75	-2.82495E-001	-2.81598E-001	0.00000E+000	...........	1410.71
	7	2	-2.82209E-001	-2.81318E-001	0.00000E+000	...........	1410.71
	8	2.25	-2.81919E-001	-2.81051E-001	0.00000E+000	...........	1410.71
	9	2.5	-2.81631E-001	-2.80742E-001	0.00000E+000	...........	1410.71
	10	2.75	-2.81345E-001	-2.80459E-001	0.00000E+000	...........	1410.71
	11	3	-2.81059E-001	-2.80182E-001	0.00000E+000	...........	1410.71
	12	3.25	-2.80772E-001	-2.79911E-001	0.00000E+000	...........	1410.71
	13	3.5	-2.80488E-001	-2.79641E-001	0.00000E+000	...........	1410.71
	14	3.75	-2.80208E-001	-2.79362E-001	0.00000E+000	...........	1410.71
	15	4	-2.79933E-001	-2.79094E-001	0.00000E+000	...........	1410.71
	16	4.25	-2.79659E-001	-2.78832E-001	0.00000E+000	...........	1410.71
	17	4.5	-2.79387E-001	-2.78547E-001	0.00000E+000	...........	1410.71
	18	4.75	-2.79116E-001	-2.78284E-001	0.00000E+000	...........	1410.71
	19	5	-2.78845E-001	-2.78012E-001	0.00000E+000	...........	1410.71
	20	5.25	-2.78575E-001	-2.77747E-001	0.00000E+000	...........	1410.71
	21	5.5	-2.78305E-001	-2.77491E-001	0.00000E+000	...........	1410.71
	22	5.75	-2.78037E-001	-2.77213E-001	0.00000E+000	...........	1410.71
	23	6	-2.77771E-001	-2.76965E-001	0.00000E+000	...........	1410.71
	24	6.25	-2.77506E-001	-2.76692E-001	0.00000E+000	...........	1410.71
	25	6.5	-2.77242E-001	-2.76437E-001	0.00000E+000	...........	1410.71
	26	6.75	-2.76979E-001	-2.76174E-001	0.00000E+000	...........	1410.71
	27	7	-2.76717E-001	-2.75929E-001	0.00000E+000	...........	1410.71
	28	7.25	-2.76457E-001	-2.75663E-001	0.00000E+000	...........	1410.71
	29	7.5	-2.76199E-001	-2.75408E-001	0.00000E+000	...........	1410.71
	30	7.75	-2.75942E-001	-2.75156E-001	0.00000E+000	...........	1410.71
	31	8	-2.75686E-001	-2.74900E-001	0.00000E+000	...........	1410.71
	32	8.25	-2.75430E-001	-2.74655E-001	0.00000E+000	...........	1410.71
	33	8.5	-2.75176E-001	-2.74399E-001	0.00000E+000	...........	1410.71
	34	8.75	-2.74923E-001	-2.74130E-001	0.00000E+000	...........	1410.71
	35	9	-2.74670E-001	-2.73909E-001	0.00000E+000	...........	1410.71
	36	9.25	-2.74417E-001	-2.73653E-001	0.00000E+000	...........	1410.71
	37	9.5	-2.74167E-001	-2.73408E-001	0.00000E+000	...........	1410.71
	38	9.75	-2.73919E-001	-2.73161E-001	0.00000E+000	...........	1410.71
	39	10	-2.73673E-001	-2.72909E-001	0.00000E+000	...........	1410.71
EOC	QUANT	-0.2736728	Open Circuit (V)
PSTATMODEL	IQUANT	64	Pstat Model
PSTATSECTION	LABEL	IFC1010-22093	Pstat Section
PSTATSERIALNO	LABEL	22093	Pstat Serial Number
CTRLMODE	IQUANT	1	Control Mode
ELECTROMETER	IQUANT	0	RE=0 or CS=1
IESTAB	IQUANT	0	I/E Stability
CASPEED	IQUANT	3	Control Amp Speed
CONVENTION	IQUANT	1	Current Convention
ICHRANGE	IQUANT	2	Ich Range
ICHRANGEMODE	TOGGLE	F	Ich Auto Range
ICHOFFSETENABLE	TOGGLE	T	Ich Offset Enable
ICHOFFSET	QUANT	0	Ich Offset (V)
ICHFILTER	IQUANT	4	Ich Filter
VCHRANGE	IQUANT	2	Vch Range
VCHRANGEMODE	TOGGLE	F	Vch Auto Range
VCHOFFSETENABLE	TOGGLE	T	Vch Offset Enable
VCHOFFSET	QUANT	0	Vch Offset (V)
VCHFILTER	IQUANT	4	Vch Filter
IERANGELOWERLIMIT	IQUANT	4	I/E Range Lower Limit
IERANGEMODE	TOGGLE	F	I/E AutoRange
IERANGE	IQUANT	7	I/E Range
ACHSELECT	IQUANT	0	Ach Select
ACHRANGE	IQUANT	2	Ach Range
ACHOFFSETENABLE	TOGGLE	F	Ach Offset Enable
ACHOFFSET	QUANT	0	Ach Offset (V)
ACHFILTER	IQUANT	1	Ach Filter
SENSECABLEID	IQUANT	14	Sense Cable ID
PWRCABLEID	IQUANT	14	Power Cable ID
DCCALDATE	LABEL	11/25/2025	DC Calibration Date
ACCALDATE	LABEL	8/31/2018	AC Calibration Date
FRAMEWORKVERSION	QUANT	7.07	Framework Version
INSTRUMENTVERSION	LABEL	4.34	Instrument Version
ZCURVE	TABLE
	Pt	Time	Freq	Zreal	Zimag	Zsig	Zmod	Zphz	Idc	Vdc	IERange
	#	s	Hz	ohm	ohm	V	ohm	°	A	V	#
	0	8	1004.464	589.8148	-44.26974	1	591.4739	-4.292401	-4.5637E-005	-1.599737	8
	1	10	800.3049	591.1158	-51.68028	1	593.3707	-4.99657	-4.09575E-005	-1.599738	8
	2	13	631.0096	590.9836	-61.5472	1	594.1798	-5.945559	-3.859853E-005	-1.599741	8
	3	15	498.6702	600.5111	-73.8943	1	605.0405	-7.015115	-3.722068E-005	-1.599745	8
	4	18	397.2458	600.0406	-88.60668	1	606.5475	-8.400036	-3.640781E-005	-1.599743	8
	5	21	319.6023	609.4799	-105.9225	1	618.6156	-9.85905	-3.581815E-005	-1.599746	8
	6	23	251.1161	608.6017	-130.0538	1	622.3423	-12.06227	-3.563283E-005	-1.599743	8
	7	26	200.8929	623.1306	-157.4677	1	642.7191	-14.18197	-3.543216E-005	-1.599743	8
	8	28	158.0056	628.3796	-193.7051	1	657.5581	-17.13251	-3.553628E-005	-1.599741	8
	9	31	125.558	637.1116	-236.4612	1	679.5771	-20.36219	-3.564361E-005	-1.599744	8
	10	33	99.734	655.4347	-289.3412	1	716.4586	-23.81903	-3.574433E-005	-1.59975	8
	11	35	79.44915	683.9704	-351.5612	1	769.0323	-27.20319	-3.58884E-005	-1.599743	8
	12	38	63.34459	715.1175	-424.7859	1	831.7668	-30.71068	-3.609547E-005	-1.599745	8
	13	41	49.86702	767.9492	-515.8276	1	925.1077	-33.88906	-3.630617E-005	-1.599742	8
	14	43	38.10976	849.7401	-632.5205	1	1059.311	-36.66287	-3.654905E-005	-1.599741	8
	15	45	31.25	930.4994	-725.5023	1	1179.908	-37.94323	-3.683393E-005	-1.599742	8
	16	48	24.93351	1049.729	-833.4578	1	1340.366	-38.44868	-3.712498E-005	-1.599742	8
	17	50	19.94681	1211.713	-933.7147	1	1529.729	-37.61692	-3.728869E-005	-1.599739	8
	18	53	15.57309	1415.895	-1016.407	1	1742.94	-35.67286	-3.762736E-005	-1.59974	8
	19	55	12.40079	1629.408	-1056.884	1	1942.157	-32.96867	-3.795152E-005	-1.599741	8
	20	59	9.91015	1852.665	-1058.516	1	2133.735	-29.74138	-3.826645E-005	-1.599741	8
	21	62	7.971939	2064.298	-1023.156	1	2303.948	-26.36502	-3.857184E-005	-1.59974	8
	22	66	6.351626	2247.897	-944.7797	1	2438.37	-22.79677	-3.90268E-005	-1.599739	8
	23	70	4.970838	2416.516	-839.5912	1	2558.215	-19.15921	-3.951905E-005	-1.599741	8
	24	75	3.942389	2525.936	-734.6331	1	2630.597	-16.21633	-4.006369E-005	-1.599742	8
	25	81	3.16723	2601.186	-636.1324	1	2677.841	-13.74223	-4.064526E-005	-1.599742	8
	26	87	2.485419	2669.952	-540.6198	1	2724.135	-11.44666	-4.126128E-005	-1.599743	8
	27	95	1.971194	2703.941	-457.9849	1	2742.452	-9.61334	-4.193549E-005	-1.599741	8
	28	104	1.605308	2711.178	-394.4597	1	2739.724	-8.278096	-4.272338E-005	-1.599742	8
	29	115	1.260081	2702.389	-332.8225	1	2722.806	-7.021113	-4.365081E-005	-1.599742	8
	30	128	1.001603	2690.241	-275.3652	1	2704.297	-5.844276	-4.441587E-005	-1.599745	8
