EXPLAIN
TAG	EISPOT
TITLE	LABEL	Potentiostatic EIS	Test &Identifier
DATE	LABEL	4/21/2026	Date
TIME	LABEL	16:02:58	Time
NOTES	NOTES	1	&Notes...
	
PSTAT	PSTAT	Titan	Potentiostat
VDC	POTEN	-1.20000E+000	F	DC &Voltage (V)
FREQINIT	QUANT	1.00000E+003	Initial Fre&q. (Hz)
FREQFINAL	QUANT	1.00000E+000	Final Fre&q. (Hz)
PTSPERDEC	QUANT	1.00000E+001	Points/&decade
VAC	QUANT	1.00000E+001	AC &Voltage (mV rms)
AREA	QUANT	2.80000E-001	&Area (cm^2)
CONDIT	TWOPARAM	F	0.00000E+000	0.00000E+000	Conditionin&g	Time(s)	E(V)
DELAY	TWOPARAM	T	1.00000E+001	0.00000E+000	Init. De&lay	Time(s)	Stab.(mV/s)
SPEED	SELECTOR	2	&Optimize for:
ZGUESS	QUANT	2.86800E+005	E&stimated Z (ohms)
OCVCURVE	TABLE	40
	Pt	T	Vf	Vm	Ach	Over	Temp
	#	s	V vs. Ref.	V	V	bits	deg C
	0	0.25	-2.21189E-001	-2.21189E-001	0.00000E+000	...........	1410.71
	1	0.5	-2.21188E-001	-2.21124E-001	0.00000E+000	...........	1410.71
	2	0.75	-2.21180E-001	-2.21052E-001	0.00000E+000	...........	1410.71
	3	1	-2.21157E-001	-2.20973E-001	0.00000E+000	...........	1410.54
	4	1.25	-2.21114E-001	-2.20899E-001	0.00000E+000	...........	1410.45
	5	1.5	-2.21053E-001	-2.20818E-001	0.00000E+000	...........	1410.45
	6	1.75	-2.20981E-001	-2.20741E-001	0.00000E+000	...........	1410.45
	7	2	-2.20904E-001	-2.20665E-001	0.00000E+000	...........	1410.74
	8	2.25	-2.20826E-001	-2.20596E-001	0.00000E+000	...........	1410.89
	9	2.5	-2.20749E-001	-2.20517E-001	0.00000E+000	...........	1410.89
	10	2.75	-2.20673E-001	-2.20446E-001	0.00000E+000	...........	1410.89
	11	3	-2.20599E-001	-2.20368E-001	0.00000E+000	...........	1410.83
	12	3.25	-2.20524E-001	-2.20299E-001	0.00000E+000	...........	1410.80
	13	3.5	-2.20450E-001	-2.20222E-001	0.00000E+000	...........	1410.80
	14	3.75	-2.20376E-001	-2.20147E-001	0.00000E+000	...........	1410.80
	15	4	-2.20302E-001	-2.20073E-001	0.00000E+000	...........	1410.80
	16	4.25	-2.20228E-001	-2.20002E-001	0.00000E+000	...........	1410.80
	17	4.5	-2.20154E-001	-2.19927E-001	0.00000E+000	...........	1410.80
	18	4.75	-2.20080E-001	-2.19855E-001	0.00000E+000	...........	1410.80
	19	5	-2.20006E-001	-2.19781E-001	0.00000E+000	...........	1410.86
	20	5.25	-2.19933E-001	-2.19712E-001	0.00000E+000	...........	1410.89
	21	5.5	-2.19860E-001	-2.19638E-001	0.00000E+000	...........	1410.89
	22	5.75	-2.19788E-001	-2.19564E-001	0.00000E+000	...........	1410.89
	23	6	-2.19716E-001	-2.19486E-001	0.00000E+000	...........	1410.83
	24	6.25	-2.19642E-001	-2.19397E-001	0.00000E+000	...........	1410.80
	25	6.5	-2.19566E-001	-2.19315E-001	0.00000E+000	...........	1410.80
	26	6.75	-2.19488E-001	-2.19244E-001	0.00000E+000	...........	1410.80
	27	7	-2.19407E-001	-2.19170E-001	0.00000E+000	...........	1410.80
	28	7.25	-2.19328E-001	-2.19102E-001	0.00000E+000	...........	1410.80
	29	7.5	-2.19251E-001	-2.19017E-001	0.00000E+000	...........	1410.80
	30	7.75	-2.19175E-001	-2.18889E-001	0.00000E+000	...........	1410.80
	31	8	-2.19095E-001	-2.18822E-001	0.00000E+000	...........	1410.80
	32	8.25	-2.19007E-001	-2.18673E-001	0.00000E+000	...........	1410.80
	33	8.5	-2.18910E-001	-2.18596E-001	0.00000E+000	...........	1410.80
	34	8.75	-2.18810E-001	-2.18599E-001	0.00000E+000	...........	1410.80
	35	9	-2.18718E-001	-2.18587E-001	0.00000E+000	...........	1410.80
	36	9.25	-2.18651E-001	-2.18683E-001	0.00000E+000	...........	1410.80
	37	9.5	-2.18622E-001	-2.18794E-001	0.00000E+000	...........	1410.80
	38	9.75	-2.18639E-001	-2.18895E-001	0.00000E+000	...........	1410.80
	39	10	-2.18696E-001	-2.18945E-001	0.00000E+000	...........	1410.86
EOC	QUANT	-0.2186956	Open Circuit (V)
PSTATMODEL	IQUANT	64	Pstat Model
PSTATSECTION	LABEL	IFC1010-22093	Pstat Section
PSTATSERIALNO	LABEL	22093	Pstat Serial Number
CTRLMODE	IQUANT	1	Control Mode
ELECTROMETER	IQUANT	0	RE=0 or CS=1
IESTAB	IQUANT	0	I/E Stability
CASPEED	IQUANT	3	Control Amp Speed
CONVENTION	IQUANT	1	Current Convention
ICHRANGE	IQUANT	2	Ich Range
ICHRANGEMODE	TOGGLE	F	Ich Auto Range
ICHOFFSETENABLE	TOGGLE	T	Ich Offset Enable
ICHOFFSET	QUANT	0	Ich Offset (V)
ICHFILTER	IQUANT	4	Ich Filter
VCHRANGE	IQUANT	2	Vch Range
VCHRANGEMODE	TOGGLE	F	Vch Auto Range
VCHOFFSETENABLE	TOGGLE	T	Vch Offset Enable
VCHOFFSET	QUANT	0	Vch Offset (V)
VCHFILTER	IQUANT	4	Vch Filter
IERANGELOWERLIMIT	IQUANT	4	I/E Range Lower Limit
IERANGEMODE	TOGGLE	F	I/E AutoRange
IERANGE	IQUANT	7	I/E Range
ACHSELECT	IQUANT	0	Ach Select
ACHRANGE	IQUANT	2	Ach Range
ACHOFFSETENABLE	TOGGLE	F	Ach Offset Enable
ACHOFFSET	QUANT	0	Ach Offset (V)
ACHFILTER	IQUANT	1	Ach Filter
SENSECABLEID	IQUANT	14	Sense Cable ID
PWRCABLEID	IQUANT	14	Power Cable ID
DCCALDATE	LABEL	11/25/2025	DC Calibration Date
ACCALDATE	LABEL	8/31/2018	AC Calibration Date
FRAMEWORKVERSION	QUANT	7.07	Framework Version
INSTRUMENTVERSION	LABEL	4.34	Instrument Version
ZCURVE	TABLE
	Pt	Time	Freq	Zreal	Zimag	Zsig	Zmod	Zphz	Idc	Vdc	IERange
	#	s	Hz	ohm	ohm	V	ohm	°	A	V	#
	0	7	1004.464	535.6398	-52.52672	1	538.2092	-5.600718	-3.57474E-005	-1.199665	8
	1	10	800.3049	534.9014	-61.68803	1	538.4468	-6.578629	-3.213713E-005	-1.199665	8
	2	12	631.0096	534.7406	-73.87341	1	539.8192	-7.865519	-2.957985E-005	-1.199666	8
	3	15	498.6702	536.646	-89.07767	1	543.9888	-9.424576	-2.765132E-005	-1.19967	8
	4	17	397.2458	539.2293	-107.6577	1	549.8713	-11.2907	-2.611608E-005	-1.199668	8
	5	19	319.6023	543.3253	-129.5582	1	558.5586	-13.41195	-2.487638E-005	-1.199671	8
	6	22	251.1161	546.7025	-160.2603	1	569.7078	-16.33797	-2.381884E-005	-1.199672	8
	7	24	200.8929	553.9747	-195.786	1	587.5544	-19.46445	-2.292559E-005	-1.199675	8
	8	27	158.0056	556.4156	-243.864	1	607.5097	-23.66672	-2.220384E-005	-1.199673	8
	9	29	125.558	564.5001	-301.3082	1	639.8805	-28.09156	-2.156583E-005	-1.19967	8
	10	32	99.734	570.7794	-373.1659	1	681.9398	-33.17598	-2.104273E-005	-1.199672	8
	11	34	79.44915	583.4587	-461.2358	1	743.749	-38.32708	-2.05875E-005	-1.199673	8
	12	37	63.34459	596.6033	-569.6155	1	824.862	-43.67434	-2.01866E-005	-1.199671	8
	13	39	49.86702	615.4311	-712.2618	1	941.3141	-49.17129	-1.982175E-005	-1.199673	8
	14	41	38.10976	651.6264	-915.4343	1	1123.671	-54.5559	-1.950911E-005	-1.199671	8
	15	44	31.25	687.6721	-1101.884	1	1298.861	-58.03222	-1.92306E-005	-1.199672	8
	16	46	24.93351	744.7063	-1360.121	1	1550.651	-61.298	-1.89695E-005	-1.199672	8
	17	49	19.94681	824.0543	-1672.873	1	1864.824	-63.77523	-1.875474E-005	-1.199671	8
	18	51	15.57309	951.977	-2101.919	1	2307.449	-65.63382	-1.855952E-005	-1.19967	8
	19	54	12.40079	1122.595	-2583.621	1	2816.969	-66.51483	-1.838701E-005	-1.199671	8
	20	56	9.91015	1367.957	-3154.255	1	3438.115	-66.55429	-1.820248E-005	-1.199672	8
	21	59	7.971939	1695.59	-3806.01	1	4166.622	-65.98688	-1.800268E-005	-1.199673	8
	22	63	6.351626	2182.817	-4584.165	1	5077.328	-64.53786	-1.78201E-005	-1.199672	8
	23	66	4.970838	2925.128	-5510.628	1	6238.862	-62.03994	-1.765981E-005	-1.199673	8
	24	70	3.942389	3886.213	-6430.302	1	7513.417	-58.85294	-1.748858E-005	-1.199674	8
	25	74	3.16723	5047.339	-7271.177	1	8851.308	-55.23328	-1.727099E-005	-1.199673	8
	26	80	2.485419	6624.591	-8062.433	1	10434.94	-50.59137	-1.70677E-005	-1.199674	8
	27	88	1.971194	8310.354	-8567.792	1	11936.04	-45.87385	-1.694768E-005	-1.199676	8
	28	97	1.605308	9903.44	-8807.326	1	13253.19	-41.64734	-1.687573E-005	-1.199675	8
	29	103	1.260081	11663.82	-8688.426	1	14544.19	-36.68258	-1.696425E-005	-1.199677	8
	30	116	1.001603	13347.61	-8688.438	1	15926.32	-33.06153	-1.679489E-005	-1.19968	8
