EXPLAIN
TAG	EISPOT
TITLE	LABEL	Potentiostatic EIS	Test &Identifier
DATE	LABEL	4/21/2026	Date
TIME	LABEL	16:32:03	Time
NOTES	NOTES	1	&Notes...
	
PSTAT	PSTAT	Rhea	Potentiostat
VDC	POTEN	-1.20000E+000	F	DC &Voltage (V)
FREQINIT	QUANT	1.00000E+003	Initial Fre&q. (Hz)
FREQFINAL	QUANT	1.00000E+000	Final Fre&q. (Hz)
PTSPERDEC	QUANT	1.00000E+001	Points/&decade
VAC	QUANT	1.00000E+001	AC &Voltage (mV rms)
AREA	QUANT	2.80000E-001	&Area (cm^2)
CONDIT	TWOPARAM	F	0.00000E+000	0.00000E+000	Conditionin&g	Time(s)	E(V)
DELAY	TWOPARAM	T	1.00000E+001	0.00000E+000	Init. De&lay	Time(s)	Stab.(mV/s)
SPEED	SELECTOR	2	&Optimize for:
ZGUESS	QUANT	2.86800E+005	E&stimated Z (ohms)
OCVCURVE	TABLE	40
	Pt	T	Vf	Vm	Ach	Over	Temp
	#	s	V vs. Ref.	V	V	bits	deg C
	0	0.25	9.36673E-002	9.36673E-002	0.00000E+000	...........	1416.78
	1	0.5	9.36811E-002	9.43915E-002	0.00000E+000	...........	1415.99
	2	0.75	9.37668E-002	9.51155E-002	0.00000E+000	...........	1415.99
	3	1	9.40112E-002	9.57917E-002	0.00000E+000	...........	1415.99
	4	1.25	9.44507E-002	9.64004E-002	0.00000E+000	...........	1415.99
	5	1.5	9.50342E-002	9.69735E-002	0.00000E+000	...........	1416.16
	6	1.75	9.56736E-002	9.75127E-002	0.00000E+000	...........	1416.16
	7	2	9.63032E-002	9.80147E-002	0.00000E+000	...........	1416.16
	8	2.25	9.68942E-002	9.84631E-002	0.00000E+000	...........	1416.16
	9	2.5	9.74398E-002	9.88701E-002	0.00000E+000	...........	1416.16
	10	2.75	9.79407E-002	9.92745E-002	0.00000E+000	...........	1416.16
	11	3	9.84012E-002	9.96639E-002	0.00000E+000	...........	1416.16
	12	3.25	9.88299E-002	1.00043E-001	0.00000E+000	...........	1416.16
	13	3.5	9.92363E-002	1.00413E-001	0.00000E+000	...........	1416.16
	14	3.75	9.96273E-002	1.00765E-001	0.00000E+000	...........	1416.16
	15	4	1.00007E-001	1.01120E-001	0.00000E+000	...........	1416.16
	16	4.25	1.00375E-001	1.01463E-001	0.00000E+000	...........	1416.16
	17	4.5	1.00735E-001	1.01775E-001	0.00000E+000	...........	1416.16
	18	4.75	1.01083E-001	1.02061E-001	0.00000E+000	...........	1416.16
	19	5	1.01416E-001	1.02330E-001	0.00000E+000	...........	1416.16
	20	5.25	1.01731E-001	1.02579E-001	0.00000E+000	...........	1416.16
	21	5.5	1.02023E-001	1.02817E-001	0.00000E+000	...........	1416.16
	22	5.75	1.02296E-001	1.03044E-001	0.00000E+000	...........	1416.16
	23	6	1.02550E-001	1.03258E-001	0.00000E+000	...........	1416.16
	24	6.25	1.02790E-001	1.03459E-001	0.00000E+000	...........	1416.16
	25	6.5	1.03018E-001	1.03663E-001	0.00000E+000	...........	1416.16
	26	6.75	1.03234E-001	1.03855E-001	0.00000E+000	...........	1416.16
	27	7	1.03441E-001	1.04035E-001	0.00000E+000	...........	1416.16
	28	7.25	1.03641E-001	1.04199E-001	0.00000E+000	...........	1416.16
	29	7.5	1.03831E-001	1.04358E-001	0.00000E+000	...........	1416.16
	30	7.75	1.04011E-001	1.04496E-001	0.00000E+000	...........	1416.16
	31	8	1.04178E-001	1.04630E-001	0.00000E+000	...........	1416.16
	32	8.25	1.04334E-001	1.04755E-001	0.00000E+000	...........	1416.16
	33	8.5	1.04479E-001	1.04870E-001	0.00000E+000	...........	1416.16
	34	8.75	1.04614E-001	1.04975E-001	0.00000E+000	...........	1416.16
	35	9	1.04738E-001	1.05076E-001	0.00000E+000	...........	1416.16
	36	9.25	1.04855E-001	1.05174E-001	0.00000E+000	...........	1416.16
	37	9.5	1.04963E-001	1.05265E-001	0.00000E+000	...........	1416.16
	38	9.75	1.05066E-001	1.05353E-001	0.00000E+000	...........	1416.16
	39	10	1.05163E-001	1.05431E-001	0.00000E+000	...........	1416.16
EOC	QUANT	0.1051626	Open Circuit (V)
PSTATMODEL	IQUANT	64	Pstat Model
PSTATSECTION	LABEL	IFC1010-22099	Pstat Section
PSTATSERIALNO	LABEL	22099	Pstat Serial Number
CTRLMODE	IQUANT	1	Control Mode
ELECTROMETER	IQUANT	0	RE=0 or CS=1
IESTAB	IQUANT	0	I/E Stability
CASPEED	IQUANT	3	Control Amp Speed
CONVENTION	IQUANT	1	Current Convention
ICHRANGE	IQUANT	2	Ich Range
ICHRANGEMODE	TOGGLE	F	Ich Auto Range
ICHOFFSETENABLE	TOGGLE	T	Ich Offset Enable
ICHOFFSET	QUANT	0	Ich Offset (V)
ICHFILTER	IQUANT	4	Ich Filter
VCHRANGE	IQUANT	2	Vch Range
VCHRANGEMODE	TOGGLE	F	Vch Auto Range
VCHOFFSETENABLE	TOGGLE	T	Vch Offset Enable
VCHOFFSET	QUANT	0	Vch Offset (V)
VCHFILTER	IQUANT	4	Vch Filter
IERANGELOWERLIMIT	IQUANT	4	I/E Range Lower Limit
IERANGEMODE	TOGGLE	F	I/E AutoRange
IERANGE	IQUANT	7	I/E Range
ACHSELECT	IQUANT	0	Ach Select
ACHRANGE	IQUANT	2	Ach Range
ACHOFFSETENABLE	TOGGLE	F	Ach Offset Enable
ACHOFFSET	QUANT	0	Ach Offset (V)
ACHFILTER	IQUANT	1	Ach Filter
SENSECABLEID	IQUANT	14	Sense Cable ID
PWRCABLEID	IQUANT	14	Power Cable ID
DCCALDATE	LABEL	11/25/2025	DC Calibration Date
ACCALDATE	LABEL	9/8/2018	AC Calibration Date
FRAMEWORKVERSION	QUANT	7.07	Framework Version
INSTRUMENTVERSION	LABEL	4.34	Instrument Version
ZCURVE	TABLE
	Pt	Time	Freq	Zreal	Zimag	Zsig	Zmod	Zphz	Idc	Vdc	IERange
	#	s	Hz	ohm	ohm	V	ohm	°	A	V	#
	0	7	1004.464	400.0949	-54.49915	1	403.7897	-7.756836	-3.542172E-005	-1.200008	8
	1	10	800.3049	400.5754	-65.26633	1	405.8575	-9.253969	-3.178086E-005	-1.200007	8
	2	12	631.0096	401.0071	-79.19893	1	408.7532	-11.17214	-2.991179E-005	-1.200004	8
	3	15	498.6702	401.8179	-96.1061	1	413.1513	-13.45121	-2.89754E-005	-1.200006	8
	4	17	397.2458	403.97	-117.0375	1	420.5824	-16.15727	-2.853741E-005	-1.200003	8
	5	20	319.6023	405.8037	-142.0351	1	429.9426	-19.29053	-2.837398E-005	-1.200007	8
	6	22	251.1161	408.7017	-175.9991	1	444.9862	-23.29815	-2.833385E-005	-1.200003	8
	7	24	200.8929	412.2345	-215.8	1	465.3031	-27.63153	-2.839692E-005	-1.200005	8
	8	27	158.0056	418.0271	-270.2571	1	497.7806	-32.88292	-2.852187E-005	-1.200006	8
	9	29	125.558	425.1669	-334.7944	1	541.1601	-38.21839	-2.86777E-005	-1.200005	8
	10	32	99.734	436.0361	-416.1397	1	602.7435	-43.66252	-2.884168E-005	-1.200003	8
	11	34	79.44915	450.1961	-515.6726	1	684.5399	-48.87816	-2.898207E-005	-1.199995	8
	12	37	63.34459	471.2465	-637.1346	1	792.4732	-53.51211	-2.913675E-005	-1.199992	8
	13	39	49.86702	508.9336	-794.0349	1	943.1356	-57.34232	-2.923553E-005	-1.199995	8
	14	42	38.10976	557.1778	-1024.403	1	1166.126	-61.45802	-2.932688E-005	-1.199996	8
	15	44	31.25	615.7972	-1228.787	1	1374.454	-63.38261	-2.941465E-005	-1.199997	8
	16	46	24.93351	710.5071	-1507.482	1	1666.53	-64.76454	-2.952685E-005	-1.199995	8
	17	49	19.94681	844.6682	-1837.898	1	2022.705	-65.31726	-2.959439E-005	-1.199991	8
	18	52	15.57309	1065.503	-2274.315	1	2511.534	-64.89719	-2.966961E-005	-1.199996	8
	19	54	12.40079	1359.792	-2735.47	1	3054.804	-63.56821	-2.973102E-005	-1.199995	8
	20	58	9.91015	1766.524	-3233.806	1	3684.849	-61.35365	-2.982977E-005	-1.199994	8
	21	61	7.971939	2297.231	-3725.94	1	4377.202	-58.34407	-2.991448E-005	-1.199994	8
	22	65	6.351626	3012.099	-4201.485	1	5169.644	-54.36277	-3.003437E-005	-1.199993	8
	23	69	4.970838	3941.415	-4593.857	1	6052.956	-49.37123	-3.012495E-005	-1.199996	8
	24	74	3.942389	4912.098	-4788.623	1	6860.001	-44.27076	-3.031575E-005	-1.199996	8
	25	80	3.16723	5818.67	-4790.332	1	7536.856	-39.46358	-3.055566E-005	-1.199995	8
	26	86	2.485419	6736.242	-4656.138	1	8188.808	-34.6525	-3.082692E-005	-1.199994	8
	27	94	1.971194	7468.379	-4459.779	1	8698.639	-30.84374	-3.111388E-005	-1.199993	8
	28	103	1.605308	8024.622	-4295.48	1	9101.962	-28.15959	-3.140526E-005	-1.199995	8
	29	114	1.260081	8592.092	-4154.838	1	9543.94	-25.8068	-3.177555E-005	-1.199994	8
	30	127	1.001603	9100.027	-4088.665	1	9976.36	-24.1945	-3.209754E-005	-1.199992	8
