EXPLAIN
TAG	EISPOT
TITLE	LABEL	Potentiostatic EIS	Test &Identifier
DATE	LABEL	4/21/2026	Date
TIME	LABEL	15:56:22	Time
NOTES	NOTES	1	&Notes...
	
PSTAT	PSTAT	Rhea	Potentiostat
VDC	POTEN	-1.60000E+000	F	DC &Voltage (V)
FREQINIT	QUANT	1.00000E+003	Initial Fre&q. (Hz)
FREQFINAL	QUANT	1.00000E+000	Final Fre&q. (Hz)
PTSPERDEC	QUANT	1.00000E+001	Points/&decade
VAC	QUANT	1.00000E+001	AC &Voltage (mV rms)
AREA	QUANT	2.80000E-001	&Area (cm^2)
CONDIT	TWOPARAM	F	0.00000E+000	0.00000E+000	Conditionin&g	Time(s)	E(V)
DELAY	TWOPARAM	T	1.00000E+001	0.00000E+000	Init. De&lay	Time(s)	Stab.(mV/s)
SPEED	SELECTOR	2	&Optimize for:
ZGUESS	QUANT	2.86800E+005	E&stimated Z (ohms)
OCVCURVE	TABLE	40
	Pt	T	Vf	Vm	Ach	Over	Temp
	#	s	V vs. Ref.	V	V	bits	deg C
	0	0.25	-1.00712E-001	-1.00712E-001	0.00000E+000	...........	1413.26
	1	0.5	-1.00712E-001	-1.00696E-001	0.00000E+000	...........	1413.26
	2	0.75	-1.00710E-001	-1.00676E-001	0.00000E+000	...........	1413.26
	3	1	-1.00704E-001	-1.00658E-001	0.00000E+000	...........	1412.94
	4	1.25	-1.00693E-001	-1.00640E-001	0.00000E+000	...........	1412.91
	5	1.5	-1.00678E-001	-1.00628E-001	0.00000E+000	...........	1412.91
	6	1.75	-1.00661E-001	-1.00617E-001	0.00000E+000	...........	1412.91
	7	2	-1.00645E-001	-1.00607E-001	0.00000E+000	...........	1413.31
	8	2.25	-1.00631E-001	-1.00595E-001	0.00000E+000	...........	1413.35
	9	2.5	-1.00618E-001	-1.00581E-001	0.00000E+000	...........	1413.35
	10	2.75	-1.00607E-001	-1.00570E-001	0.00000E+000	...........	1413.35
	11	3	-1.00595E-001	-1.00559E-001	0.00000E+000	...........	1413.35
	12	3.25	-1.00583E-001	-1.00544E-001	0.00000E+000	...........	1413.35
	13	3.5	-1.00571E-001	-1.00524E-001	0.00000E+000	...........	1413.35
	14	3.75	-1.00558E-001	-1.00512E-001	0.00000E+000	...........	1413.35
	15	4	-1.00543E-001	-1.00501E-001	0.00000E+000	...........	1413.35
	16	4.25	-1.00529E-001	-1.00492E-001	0.00000E+000	...........	1413.35
	17	4.5	-1.00515E-001	-1.00471E-001	0.00000E+000	...........	1413.35
	18	4.75	-1.00502E-001	-1.00455E-001	0.00000E+000	...........	1413.35
	19	5	-1.00488E-001	-1.00443E-001	0.00000E+000	...........	1413.35
	20	5.25	-1.00473E-001	-1.00427E-001	0.00000E+000	...........	1413.35
	21	5.5	-1.00458E-001	-1.00409E-001	0.00000E+000	...........	1413.35
	22	5.75	-1.00443E-001	-1.00398E-001	0.00000E+000	...........	1413.35
	23	6	-1.00428E-001	-1.00388E-001	0.00000E+000	...........	1413.35
	24	6.25	-1.00413E-001	-1.00373E-001	0.00000E+000	...........	1413.35
	25	6.5	-1.00400E-001	-1.00365E-001	0.00000E+000	...........	1413.35
	26	6.75	-1.00388E-001	-1.00355E-001	0.00000E+000	...........	1413.35
	27	7	-1.00376E-001	-1.00339E-001	0.00000E+000	...........	1413.35
	28	7.25	-1.00365E-001	-1.00331E-001	0.00000E+000	...........	1413.35
	29	7.5	-1.00353E-001	-1.00305E-001	0.00000E+000	...........	1413.35
	30	7.75	-1.00340E-001	-1.00285E-001	0.00000E+000	...........	1413.35
	31	8	-1.00325E-001	-1.00273E-001	0.00000E+000	...........	1413.35
	32	8.25	-1.00308E-001	-1.00262E-001	0.00000E+000	...........	1413.35
	33	8.5	-1.00291E-001	-1.00250E-001	0.00000E+000	...........	1413.35
	34	8.75	-1.00276E-001	-1.00241E-001	0.00000E+000	...........	1413.35
	35	9	-1.00263E-001	-1.00231E-001	0.00000E+000	...........	1413.35
	36	9.25	-1.00252E-001	-1.00225E-001	0.00000E+000	...........	1413.35
	37	9.5	-1.00242E-001	-1.00217E-001	0.00000E+000	...........	1413.35
	38	9.75	-1.00233E-001	-1.00207E-001	0.00000E+000	...........	1413.35
	39	10	-1.00224E-001	-1.00179E-001	0.00000E+000	...........	1413.35
EOC	QUANT	-0.1002243	Open Circuit (V)
PSTATMODEL	IQUANT	64	Pstat Model
PSTATSECTION	LABEL	IFC1010-22099	Pstat Section
PSTATSERIALNO	LABEL	22099	Pstat Serial Number
CTRLMODE	IQUANT	1	Control Mode
ELECTROMETER	IQUANT	0	RE=0 or CS=1
IESTAB	IQUANT	0	I/E Stability
CASPEED	IQUANT	3	Control Amp Speed
CONVENTION	IQUANT	1	Current Convention
ICHRANGE	IQUANT	2	Ich Range
ICHRANGEMODE	TOGGLE	F	Ich Auto Range
ICHOFFSETENABLE	TOGGLE	T	Ich Offset Enable
ICHOFFSET	QUANT	0	Ich Offset (V)
ICHFILTER	IQUANT	4	Ich Filter
VCHRANGE	IQUANT	2	Vch Range
VCHRANGEMODE	TOGGLE	F	Vch Auto Range
VCHOFFSETENABLE	TOGGLE	T	Vch Offset Enable
VCHOFFSET	QUANT	0	Vch Offset (V)
VCHFILTER	IQUANT	4	Vch Filter
IERANGELOWERLIMIT	IQUANT	4	I/E Range Lower Limit
IERANGEMODE	TOGGLE	F	I/E AutoRange
IERANGE	IQUANT	7	I/E Range
ACHSELECT	IQUANT	0	Ach Select
ACHRANGE	IQUANT	2	Ach Range
ACHOFFSETENABLE	TOGGLE	F	Ach Offset Enable
ACHOFFSET	QUANT	0	Ach Offset (V)
ACHFILTER	IQUANT	1	Ach Filter
SENSECABLEID	IQUANT	14	Sense Cable ID
PWRCABLEID	IQUANT	14	Power Cable ID
DCCALDATE	LABEL	11/25/2025	DC Calibration Date
ACCALDATE	LABEL	9/8/2018	AC Calibration Date
FRAMEWORKVERSION	QUANT	7.07	Framework Version
INSTRUMENTVERSION	LABEL	4.34	Instrument Version
ZCURVE	TABLE
	Pt	Time	Freq	Zreal	Zimag	Zsig	Zmod	Zphz	Idc	Vdc	IERange
	#	s	Hz	ohm	ohm	V	ohm	°	A	V	#
	0	9	1004.464	288.6683	-33.81887	1	290.6426	-6.682014	-0.0000998	-1.599971	9
	1	11	800.3049	289.7316	-40.18837	1	292.5056	-7.897048	-0.0000991	-1.599973	9
	2	14	631.0096	291.4749	-48.35897	1	295.4594	-9.420203	-0.0000994	-1.599974	9
	3	16	498.6702	293.6334	-58.17361	1	299.3405	-11.20613	-0.0001001	-1.599973	9
	4	19	397.2458	296.2765	-69.73203	1	304.372	-13.24417	-0.0001012	-1.599971	9
	5	21	319.6023	299.4978	-83.15027	1	310.8262	-15.51637	-0.0001023	-1.599971	9
	6	24	251.1161	304.4466	-101.501	1	320.9208	-18.43814	-0.0001036	-1.599971	9
	7	26	200.8929	310.5643	-121.9693	1	333.6565	-21.44164	-0.0001048	-1.599971	9
	8	29	158.0056	319.943	-148.7598	1	352.8356	-24.93641	-0.0001063	-1.599971	9
	9	31	125.558	332.7359	-179.3186	1	377.9793	-28.32119	-0.0001077	-1.599971	9
	10	33	99.734	351.0722	-215.3346	1	411.8504	-31.5234	-0.0001091	-1.599972	9
	11	36	79.44915	376.1843	-255.5886	1	454.7968	-34.19312	-0.0001107	-1.599963	9
	12	39	63.34459	410.7771	-299.5113	1	508.3747	-36.09704	-0.0001121	-1.599957	9
	13	41	49.86702	460.2535	-347.8734	1	576.9308	-37.08308	-0.0001135	-1.599958	9
	14	44	38.10976	533.735	-397.9582	1	665.7656	-36.70858	-0.000116	-1.599957	9
	15	46	31.25	599.4875	-424.3393	1	734.472	-35.29226	-0.0001204	-1.599958	9
	16	48	24.93351	684.124	-444.063	1	815.6088	-32.98749	-0.0001235	-1.599956	9
	17	51	19.94681	769.3826	-445.5534	1	889.0823	-30.07535	-0.0001265	-1.59996	9
	18	54	15.57309	861.6099	-427.6892	1	961.92	-26.39906	-0.0001295	-1.599957	9
	19	57	12.40079	933.174	-395.5829	1	1013.558	-22.97264	-0.0001332	-1.599959	9
	20	60	9.91015	988.066	-351.0701	1	1048.583	-19.56065	-0.0001361	-1.599958	9
	21	63	7.971939	1028.447	-307.0218	1	1073.297	-16.62191	-0.0001386	-1.599958	9
	22	67	6.351626	1052.824	-260.1261	1	1084.483	-13.87838	-0.0001417	-1.599958	9
	23	71	4.970838	1071.545	-217.1096	1	1093.319	-11.45385	-0.0001443	-1.599961	9
	24	76	3.942389	1083.074	-181.328	1	1098.148	-9.5043	-0.0001467	-1.599962	9
	25	82	3.16723	1076.971	-150.6094	1	1087.451	-7.960924	-0.0001489	-1.599959	9
	26	88	2.485419	1074.696	-127.1118	1	1082.187	-6.745431	-0.0001526	-1.599959	9
	27	96	1.971194	1071.74	-107.8106	1	1077.149	-5.744285	-0.0001548	-1.59996	9
	28	105	1.605308	1054.975	-91.53899	1	1058.939	-4.959068	-0.0001587	-1.59996	9
	29	116	1.260081	1043.125	-80.34432	1	1046.214	-4.404382	-0.0001623	-1.59996	9
	30	129	1.001603	1036.251	-70.11461	1	1038.621	-3.870835	-0.0001658	-1.599961	9
