EXPLAIN
TAG	EISPOT
TITLE	LABEL	Potentiostatic EIS	Test &Identifier
DATE	LABEL	4/21/2026	Date
TIME	LABEL	16:34:48	Time
NOTES	NOTES	1	&Notes...
	
PSTAT	PSTAT	Rhea	Potentiostat
VDC	POTEN	-1.40000E+000	F	DC &Voltage (V)
FREQINIT	QUANT	1.00000E+003	Initial Fre&q. (Hz)
FREQFINAL	QUANT	1.00000E+000	Final Fre&q. (Hz)
PTSPERDEC	QUANT	1.00000E+001	Points/&decade
VAC	QUANT	1.00000E+001	AC &Voltage (mV rms)
AREA	QUANT	2.80000E-001	&Area (cm^2)
CONDIT	TWOPARAM	F	0.00000E+000	0.00000E+000	Conditionin&g	Time(s)	E(V)
DELAY	TWOPARAM	T	1.00000E+001	0.00000E+000	Init. De&lay	Time(s)	Stab.(mV/s)
SPEED	SELECTOR	2	&Optimize for:
ZGUESS	QUANT	2.86800E+005	E&stimated Z (ohms)
OCVCURVE	TABLE	40
	Pt	T	Vf	Vm	Ach	Over	Temp
	#	s	V vs. Ref.	V	V	bits	deg C
	0	0.25	-1.22256E-001	-1.22256E-001	0.00000E+000	...........	1415.46
	1	0.5	-1.22232E-001	-1.20990E-001	0.00000E+000	...........	1415.46
	2	0.75	-1.22083E-001	-1.19747E-001	0.00000E+000	...........	1415.46
	3	1	-1.21657E-001	-1.18538E-001	0.00000E+000	...........	1415.46
	4	1.25	-1.20889E-001	-1.17365E-001	0.00000E+000	...........	1415.99
	5	1.5	-1.19856E-001	-1.16223E-001	0.00000E+000	...........	1415.99
	6	1.75	-1.18695E-001	-1.15109E-001	0.00000E+000	...........	1415.99
	7	2	-1.17508E-001	-1.14023E-001	0.00000E+000	...........	1415.99
	8	2.25	-1.16346E-001	-1.12976E-001	0.00000E+000	...........	1416.07
	9	2.5	-1.15221E-001	-1.11940E-001	0.00000E+000	...........	1416.07
	10	2.75	-1.14131E-001	-1.10936E-001	0.00000E+000	...........	1416.07
	11	3	-1.13072E-001	-1.09952E-001	0.00000E+000	...........	1416.07
	12	3.25	-1.12039E-001	-1.09007E-001	0.00000E+000	...........	1415.99
	13	3.5	-1.11032E-001	-1.08034E-001	0.00000E+000	...........	1415.99
	14	3.75	-1.10047E-001	-1.07136E-001	0.00000E+000	...........	1415.99
	15	4	-1.09083E-001	-1.06251E-001	0.00000E+000	...........	1415.99
	16	4.25	-1.08142E-001	-1.05395E-001	0.00000E+000	...........	1415.99
	17	4.5	-1.07227E-001	-1.04561E-001	0.00000E+000	...........	1415.99
	18	4.75	-1.06340E-001	-1.03745E-001	0.00000E+000	...........	1415.99
	19	5	-1.05478E-001	-1.02943E-001	0.00000E+000	...........	1415.99
	20	5.25	-1.04639E-001	-1.02173E-001	0.00000E+000	...........	1415.99
	21	5.5	-1.03821E-001	-1.01409E-001	0.00000E+000	...........	1415.99
	22	5.75	-1.03023E-001	-1.00663E-001	0.00000E+000	...........	1415.99
	23	6	-1.02243E-001	-9.99372E-002	0.00000E+000	...........	1415.99
	24	6.25	-1.01480E-001	-9.92220E-002	0.00000E+000	...........	1415.99
	25	6.5	-1.00734E-001	-9.85310E-002	0.00000E+000	...........	1415.99
	26	6.75	-1.00005E-001	-9.78507E-002	0.00000E+000	...........	1415.99
	27	7	-9.92920E-002	-9.71859E-002	0.00000E+000	...........	1415.99
	28	7.25	-9.85954E-002	-9.65382E-002	0.00000E+000	...........	1415.99
	29	7.5	-9.79146E-002	-9.59006E-002	0.00000E+000	...........	1415.99
	30	7.75	-9.72490E-002	-9.52772E-002	0.00000E+000	...........	1415.99
	31	8	-9.65978E-002	-9.46760E-002	0.00000E+000	...........	1415.99
	32	8.25	-9.59611E-002	-9.40839E-002	0.00000E+000	...........	1415.99
	33	8.5	-9.53391E-002	-9.34978E-002	0.00000E+000	...........	1415.99
	34	8.75	-9.47314E-002	-9.29330E-002	0.00000E+000	...........	1415.99
	35	9	-9.41369E-002	-9.23836E-002	0.00000E+000	...........	1415.99
	36	9.25	-9.35557E-002	-9.18356E-002	0.00000E+000	...........	1415.99
	37	9.5	-9.29875E-002	-9.13036E-002	0.00000E+000	...........	1415.99
	38	9.75	-9.24315E-002	-9.07802E-002	0.00000E+000	...........	1415.99
	39	10	-9.18868E-002	-9.02698E-002	0.00000E+000	...........	1415.99
EOC	QUANT	-0.0918868	Open Circuit (V)
PSTATMODEL	IQUANT	64	Pstat Model
PSTATSECTION	LABEL	IFC1010-22099	Pstat Section
PSTATSERIALNO	LABEL	22099	Pstat Serial Number
CTRLMODE	IQUANT	1	Control Mode
ELECTROMETER	IQUANT	0	RE=0 or CS=1
IESTAB	IQUANT	0	I/E Stability
CASPEED	IQUANT	3	Control Amp Speed
CONVENTION	IQUANT	1	Current Convention
ICHRANGE	IQUANT	2	Ich Range
ICHRANGEMODE	TOGGLE	F	Ich Auto Range
ICHOFFSETENABLE	TOGGLE	T	Ich Offset Enable
ICHOFFSET	QUANT	0	Ich Offset (V)
ICHFILTER	IQUANT	4	Ich Filter
VCHRANGE	IQUANT	2	Vch Range
VCHRANGEMODE	TOGGLE	F	Vch Auto Range
VCHOFFSETENABLE	TOGGLE	T	Vch Offset Enable
VCHOFFSET	QUANT	0	Vch Offset (V)
VCHFILTER	IQUANT	4	Vch Filter
IERANGELOWERLIMIT	IQUANT	4	I/E Range Lower Limit
IERANGEMODE	TOGGLE	F	I/E AutoRange
IERANGE	IQUANT	7	I/E Range
ACHSELECT	IQUANT	0	Ach Select
ACHRANGE	IQUANT	2	Ach Range
ACHOFFSETENABLE	TOGGLE	F	Ach Offset Enable
ACHOFFSET	QUANT	0	Ach Offset (V)
ACHFILTER	IQUANT	1	Ach Filter
SENSECABLEID	IQUANT	14	Sense Cable ID
PWRCABLEID	IQUANT	14	Power Cable ID
DCCALDATE	LABEL	11/25/2025	DC Calibration Date
ACCALDATE	LABEL	9/8/2018	AC Calibration Date
FRAMEWORKVERSION	QUANT	7.07	Framework Version
INSTRUMENTVERSION	LABEL	4.34	Instrument Version
ZCURVE	TABLE
	Pt	Time	Freq	Zreal	Zimag	Zsig	Zmod	Zphz	Idc	Vdc	IERange
	#	s	Hz	ohm	ohm	V	ohm	°	A	V	#
	0	7	1004.464	371.169	-44.48753	1	373.8256	-6.834746	-4.969704E-005	-1.400042	9
	1	10	800.3049	372.8241	-54.13826	1	376.7344	-8.262241	-4.640816E-005	-1.40002	8
	2	12	631.0096	375.8454	-65.37085	1	381.488	-9.86676	-4.517041E-005	-1.400019	8
	3	15	498.6702	378.5795	-79.52893	1	386.8427	-11.86373	-4.453928E-005	-1.400015	8
	4	17	397.2458	381.4713	-96.7979	1	393.5609	-14.23822	-4.411874E-005	-1.400016	8
	5	20	319.6023	385.4962	-117.2851	1	402.9431	-16.92209	-4.385695E-005	-1.40002	8
	6	22	251.1161	390.8278	-145.0774	1	416.8858	-20.3652	-4.36726E-005	-1.400016	8
	7	24	200.8929	397.0438	-176.9821	1	434.7027	-24.02489	-4.352217E-005	-1.400016	8
	8	27	158.0056	406.2443	-219.7268	1	461.8596	-28.40778	-4.340441E-005	-1.400015	8
	9	30	125.558	418.9883	-270.4641	1	498.7003	-32.84293	-4.331536E-005	-1.40002	8
	10	32	99.734	436.3221	-331.9298	1	548.2284	-37.26188	-4.326214E-005	-1.400018	8
	11	34	79.44915	460.4092	-408.1454	1	615.2717	-41.55648	-4.326629E-005	-1.400009	8
	12	37	63.34459	494.2395	-498.5454	1	702.0116	-45.2485	-4.321951E-005	-1.40001	8
	13	39	49.86702	540.0791	-607.4043	1	812.7887	-48.35781	-4.320546E-005	-1.400011	8
	14	42	38.10976	625.8019	-761.5777	1	985.712	-50.58945	-4.317712E-005	-1.40001	8
	15	44	31.25	709.2576	-889.2577	1	1137.465	-51.4247	-4.317476E-005	-1.400009	8
	16	47	24.93351	835.1476	-1047.458	1	1339.642	-51.43433	-4.321693E-005	-1.400006	8
	17	49	19.94681	997.2	-1211.962	1	1569.478	-50.55252	-4.318777E-005	-1.40001	8
	18	52	15.57309	1226.074	-1392.828	1	1855.593	-48.64328	-4.317442E-005	-1.400007	8
	19	55	12.40079	1480.033	-1544.23	1	2138.958	-46.21606	-4.31705E-005	-1.400008	8
	20	58	9.91015	1764.81	-1670.204	1	2429.842	-43.42237	-4.319629E-005	-1.400008	8
	21	61	7.971939	2063.938	-1762.258	1	2713.925	-40.49179	-4.318526E-005	-1.400007	8
	22	65	6.351626	2388.072	-1825.865	1	3006.106	-37.4007	-4.321038E-005	-1.400006	8
	23	70	4.970838	2738.1	-1863.829	1	3312.258	-34.24318	-4.330847E-005	-1.400007	8
	24	75	3.942389	3065.916	-1880.962	1	3596.924	-31.52942	-4.334779E-005	-1.40001	8
	25	80	3.16723	3370.248	-1885.874	1	3862.007	-29.22986	-4.337896E-005	-1.400008	8
	26	87	2.485419	3709.026	-1879.614	1	4158.103	-26.87441	-4.339713E-005	-1.40001	8
	27	94	1.971194	4018.918	-1866.359	1	4431.14	-24.90984	-4.34171E-005	-1.400011	8
	28	104	1.605308	4277.992	-1854.554	1	4662.68	-23.43723	-4.373554E-005	-1.400011	8
	29	114	1.260081	4569.37	-1840.695	1	4926.185	-21.94122	-4.372915E-005	-1.400008	8
	30	128	1.001603	4802.964	-1806.767	1	5131.557	-20.61517	-4.386107E-005	-1.400007	8
