EXPLAIN
TAG	EISPOT
TITLE	LABEL	Potentiostatic EIS	Test &Identifier
DATE	LABEL	4/22/2026	Date
TIME	LABEL	13:29:33	Time
NOTES	NOTES	1	&Notes...
	
PSTAT	PSTAT	Rhea	Potentiostat
VDC	POTEN	-1.40000E+000	F	DC &Voltage (V)
FREQINIT	QUANT	1.00000E+003	Initial Fre&q. (Hz)
FREQFINAL	QUANT	1.00000E+000	Final Fre&q. (Hz)
PTSPERDEC	QUANT	1.00000E+001	Points/&decade
VAC	QUANT	1.00000E+001	AC &Voltage (mV rms)
AREA	QUANT	2.80000E-001	&Area (cm^2)
CONDIT	TWOPARAM	F	0.00000E+000	0.00000E+000	Conditionin&g	Time(s)	E(V)
DELAY	TWOPARAM	T	1.00000E+001	0.00000E+000	Init. De&lay	Time(s)	Stab.(mV/s)
SPEED	SELECTOR	2	&Optimize for:
ZGUESS	QUANT	2.86800E+005	E&stimated Z (ohms)
OCVCURVE	TABLE	40
	Pt	T	Vf	Vm	Ach	Over	Temp
	#	s	V vs. Ref.	V	V	bits	deg C
	0	0.25	-1.87703E-001	-1.87703E-001	0.00000E+000	...........	1415.63
	1	0.5	-1.87684E-001	-1.86708E-001	0.00000E+000	...........	1415.63
	2	0.75	-1.87566E-001	-1.85723E-001	0.00000E+000	...........	1415.63
	3	1	-1.87231E-001	-1.84751E-001	0.00000E+000	...........	1415.72
	4	1.25	-1.86623E-001	-1.83801E-001	0.00000E+000	...........	1415.72
	5	1.5	-1.85800E-001	-1.82855E-001	0.00000E+000	...........	1415.72
	6	1.75	-1.84867E-001	-1.81923E-001	0.00000E+000	...........	1415.72
	7	2	-1.83904E-001	-1.80998E-001	0.00000E+000	...........	1415.72
	8	2.25	-1.82946E-001	-1.80088E-001	0.00000E+000	...........	1415.72
	9	2.5	-1.82005E-001	-1.79191E-001	0.00000E+000	...........	1415.72
	10	2.75	-1.81079E-001	-1.78305E-001	0.00000E+000	...........	1415.72
	11	3	-1.80168E-001	-1.77431E-001	0.00000E+000	...........	1415.72
	12	3.25	-1.79269E-001	-1.76569E-001	0.00000E+000	...........	1415.72
	13	3.5	-1.78382E-001	-1.75713E-001	0.00000E+000	...........	1415.72
	14	3.75	-1.77507E-001	-1.74878E-001	0.00000E+000	...........	1415.72
	15	4	-1.76643E-001	-1.74051E-001	0.00000E+000	...........	1415.72
	16	4.25	-1.75791E-001	-1.73224E-001	0.00000E+000	...........	1415.72
	17	4.5	-1.74950E-001	-1.72411E-001	0.00000E+000	...........	1415.72
	18	4.75	-1.74118E-001	-1.71609E-001	0.00000E+000	...........	1415.72
	19	5	-1.73296E-001	-1.70823E-001	0.00000E+000	...........	1415.72
	20	5.25	-1.72483E-001	-1.70045E-001	0.00000E+000	...........	1415.72
	21	5.5	-1.71682E-001	-1.69279E-001	0.00000E+000	...........	1415.72
	22	5.75	-1.70892E-001	-1.68523E-001	0.00000E+000	...........	1415.72
	23	6	-1.70114E-001	-1.67780E-001	0.00000E+000	...........	1415.72
	24	6.25	-1.69346E-001	-1.67041E-001	0.00000E+000	...........	1415.72
	25	6.5	-1.68589E-001	-1.66299E-001	0.00000E+000	...........	1415.72
	26	6.75	-1.67841E-001	-1.65579E-001	0.00000E+000	...........	1415.72
	27	7	-1.67100E-001	-1.64863E-001	0.00000E+000	...........	1415.81
	28	7.25	-1.66367E-001	-1.64167E-001	0.00000E+000	...........	1415.81
	29	7.5	-1.65643E-001	-1.63483E-001	0.00000E+000	...........	1415.81
	30	7.75	-1.64931E-001	-1.62805E-001	0.00000E+000	...........	1415.81
	31	8	-1.64231E-001	-1.62130E-001	0.00000E+000	...........	1415.72
	32	8.25	-1.63542E-001	-1.61474E-001	0.00000E+000	...........	1415.72
	33	8.5	-1.62862E-001	-1.60823E-001	0.00000E+000	...........	1415.72
	34	8.75	-1.62192E-001	-1.60186E-001	0.00000E+000	...........	1415.72
	35	9	-1.61532E-001	-1.59549E-001	0.00000E+000	...........	1415.72
	36	9.25	-1.60881E-001	-1.58925E-001	0.00000E+000	...........	1415.72
	37	9.5	-1.60239E-001	-1.58299E-001	0.00000E+000	...........	1415.72
	38	9.75	-1.59604E-001	-1.57690E-001	0.00000E+000	...........	1415.72
	39	10	-1.58976E-001	-1.57077E-001	0.00000E+000	...........	1415.72
EOC	QUANT	-0.1589763	Open Circuit (V)
PSTATMODEL	IQUANT	64	Pstat Model
PSTATSECTION	LABEL	IFC1010-22099	Pstat Section
PSTATSERIALNO	LABEL	22099	Pstat Serial Number
CTRLMODE	IQUANT	1	Control Mode
ELECTROMETER	IQUANT	0	RE=0 or CS=1
IESTAB	IQUANT	0	I/E Stability
CASPEED	IQUANT	3	Control Amp Speed
CONVENTION	IQUANT	1	Current Convention
ICHRANGE	IQUANT	2	Ich Range
ICHRANGEMODE	TOGGLE	F	Ich Auto Range
ICHOFFSETENABLE	TOGGLE	T	Ich Offset Enable
ICHOFFSET	QUANT	0	Ich Offset (V)
ICHFILTER	IQUANT	4	Ich Filter
VCHRANGE	IQUANT	2	Vch Range
VCHRANGEMODE	TOGGLE	F	Vch Auto Range
VCHOFFSETENABLE	TOGGLE	T	Vch Offset Enable
VCHOFFSET	QUANT	0	Vch Offset (V)
VCHFILTER	IQUANT	4	Vch Filter
IERANGELOWERLIMIT	IQUANT	4	I/E Range Lower Limit
IERANGEMODE	TOGGLE	F	I/E AutoRange
IERANGE	IQUANT	7	I/E Range
ACHSELECT	IQUANT	0	Ach Select
ACHRANGE	IQUANT	2	Ach Range
ACHOFFSETENABLE	TOGGLE	F	Ach Offset Enable
ACHOFFSET	QUANT	0	Ach Offset (V)
ACHFILTER	IQUANT	1	Ach Filter
SENSECABLEID	IQUANT	14	Sense Cable ID
PWRCABLEID	IQUANT	14	Power Cable ID
DCCALDATE	LABEL	11/25/2025	DC Calibration Date
ACCALDATE	LABEL	9/8/2018	AC Calibration Date
FRAMEWORKVERSION	QUANT	7.07	Framework Version
INSTRUMENTVERSION	LABEL	4.34	Instrument Version
ZCURVE	TABLE
	Pt	Time	Freq	Zreal	Zimag	Zsig	Zmod	Zphz	Idc	Vdc	IERange
	#	s	Hz	ohm	ohm	V	ohm	°	A	V	#
	0	7	1004.464	262.2505	-41.66039	1	265.5389	-9.026425	-5.519182E-005	-1.400031	9
	1	10	800.3049	264.2041	-50.157	1	268.9229	-10.74922	-5.350253E-005	-1.400036	9
	2	12	631.0096	266.6725	-61.13348	1	273.5901	-12.9117	-5.260609E-005	-1.400034	9
	3	14	498.6702	269.546	-74.53853	1	279.6624	-15.45791	-5.19991E-005	-1.400031	9
	4	17	397.2458	272.8776	-90.61531	1	287.5297	-18.36994	-5.158386E-005	-1.400035	9
	5	19	319.6023	276.7866	-109.484	1	297.6534	-21.58147	-5.129801E-005	-1.400031	9
	6	22	251.1161	282.3543	-135.3981	1	313.1399	-25.61923	-5.101414E-005	-1.400032	9
	7	24	200.8929	289.2528	-165.136	1	333.0721	-29.72228	-5.081021E-005	-1.400029	9
	8	26	158.0056	299.3206	-204.5365	1	362.53	-34.34619	-5.064185E-005	-1.40003	9
	9	29	125.558	312.9121	-250.9883	1	401.1348	-38.73326	-5.061196E-005	-1.400034	9
	10	31	99.734	332.1535	-307.5115	1	452.647	-42.79387	-5.02665E-005	-1.400011	8
	11	33	79.44915	358.4353	-374.774	1	518.586	-46.27655	-5.025536E-005	-1.399998	8
	12	36	63.34459	394.954	-454.173	1	601.8819	-48.98941	-5.021538E-005	-1.399995	8
	13	38	49.86702	448.8093	-552.488	1	711.8095	-50.91159	-5.013013E-005	-1.399994	8
	14	40	38.10976	535.3824	-678.366	1	864.1844	-51.71867	-5.019669E-005	-1.399994	8
	15	43	31.25	620.7538	-781.5999	1	998.115	-51.54308	-5.018211E-005	-1.399995	8
	16	46	24.93351	746.0185	-903.702	1	1171.845	-50.45985	-5.025235E-005	-1.399994	8
	17	48	19.94681	902.0358	-1022.216	1	1363.302	-48.57379	-5.032537E-005	-1.399996	8
	18	51	15.57309	1112.003	-1139.357	1	1592.069	-45.69613	-5.045518E-005	-1.399997	8
	19	54	12.40079	1333.277	-1224.011	1	1809.925	-42.55339	-5.079804E-005	-1.399996	8
	20	57	9.91015	1567.01	-1280.642	1	2023.75	-39.25748	-5.081934E-005	-1.399995	8
	21	61	7.971939	1799.657	-1309.082	1	2225.412	-36.03238	-5.077624E-005	-1.399994	8
	22	65	6.351626	2036.71	-1315.007	1	2424.341	-32.84842	-5.07742E-005	-1.399993	8
	23	69	4.970838	2278.703	-1305.573	1	2626.216	-29.81037	-5.083686E-005	-1.399994	8
	24	74	3.942389	2494.223	-1288.359	1	2807.315	-27.31804	-5.099204E-005	-1.399992	8
	25	80	3.16723	2686.105	-1279.442	1	2975.254	-25.46934	-5.155654E-005	-1.399993	8
	26	86	2.485419	2896.012	-1257.4	1	3157.205	-23.46968	-5.228531E-005	-1.399992	8
	27	94	1.971194	3079.831	-1258.445	1	3327.018	-22.22534	-5.268456E-005	-1.399993	8
	28	103	1.605308	3262.946	-1261.515	1	3498.319	-21.13742	-5.372135E-005	-1.399992	8
	29	114	1.260081	3468.954	-1274.397	1	3695.636	-20.17193	-5.413485E-005	-1.399992	8
	30	127	1.001603	3621.72	-1284.81	1	3842.863	-19.53221	-5.455699E-005	-1.399991	8
