EXPLAIN
TAG	EISPOT
TITLE	LABEL	Potentiostatic EIS	Test &Identifier
DATE	LABEL	4/22/2026	Date
TIME	LABEL	12:46:57	Time
NOTES	NOTES	1	&Notes...
	
PSTAT	PSTAT	Rhea	Potentiostat
VDC	POTEN	-1.40000E+000	F	DC &Voltage (V)
FREQINIT	QUANT	1.00000E+003	Initial Fre&q. (Hz)
FREQFINAL	QUANT	1.00000E+000	Final Fre&q. (Hz)
PTSPERDEC	QUANT	1.00000E+001	Points/&decade
VAC	QUANT	1.00000E+001	AC &Voltage (mV rms)
AREA	QUANT	2.80000E-001	&Area (cm^2)
CONDIT	TWOPARAM	F	0.00000E+000	0.00000E+000	Conditionin&g	Time(s)	E(V)
DELAY	TWOPARAM	T	1.00000E+001	0.00000E+000	Init. De&lay	Time(s)	Stab.(mV/s)
SPEED	SELECTOR	2	&Optimize for:
ZGUESS	QUANT	2.86800E+005	E&stimated Z (ohms)
OCVCURVE	TABLE	40
	Pt	T	Vf	Vm	Ach	Over	Temp
	#	s	V vs. Ref.	V	V	bits	deg C
	0	0.25	-2.65583E-001	-2.65583E-001	0.00000E+000	...........	1415.72
	1	0.5	-2.65571E-001	-2.64981E-001	0.00000E+000	...........	1415.62
	2	0.75	-2.65500E-001	-2.64378E-001	0.00000E+000	...........	1415.19
	3	1	-2.65295E-001	-2.63747E-001	0.00000E+000	...........	1415.19
	4	1.25	-2.64921E-001	-2.63157E-001	0.00000E+000	...........	1415.19
	5	1.5	-2.64410E-001	-2.62535E-001	0.00000E+000	...........	1415.16
	6	1.75	-2.63823E-001	-2.61942E-001	0.00000E+000	...........	1415.02
	7	2	-2.63211E-001	-2.61352E-001	0.00000E+000	...........	1415.02
	8	2.25	-2.62599E-001	-2.60767E-001	0.00000E+000	...........	1415.02
	9	2.5	-2.61993E-001	-2.60014E-001	0.00000E+000	...........	1415.02
	10	2.75	-2.61382E-001	-2.59451E-001	0.00000E+000	...........	1415.02
	11	3	-2.60759E-001	-2.58881E-001	0.00000E+000	...........	1415.02
	12	3.25	-2.60133E-001	-2.58327E-001	0.00000E+000	...........	1415.02
	13	3.5	-2.59524E-001	-2.57760E-001	0.00000E+000	...........	1415.03
	14	3.75	-2.58937E-001	-2.57204E-001	0.00000E+000	...........	1415.11
	15	4	-2.58367E-001	-2.56662E-001	0.00000E+000	...........	1415.11
	16	4.25	-2.57807E-001	-2.56126E-001	0.00000E+000	...........	1415.11
	17	4.5	-2.57255E-001	-2.55580E-001	0.00000E+000	...........	1415.14
	18	4.75	-2.56708E-001	-2.55048E-001	0.00000E+000	...........	1415.28
	19	5	-2.56166E-001	-2.54507E-001	0.00000E+000	...........	1415.28
	20	5.25	-2.55626E-001	-2.53974E-001	0.00000E+000	...........	1415.28
	21	5.5	-2.55088E-001	-2.53452E-001	0.00000E+000	...........	1415.25
	22	5.75	-2.54553E-001	-2.52924E-001	0.00000E+000	...........	1415.11
	23	6	-2.54021E-001	-2.52415E-001	0.00000E+000	...........	1415.11
	24	6.25	-2.53494E-001	-2.51906E-001	0.00000E+000	...........	1415.11
	25	6.5	-2.52973E-001	-2.51403E-001	0.00000E+000	...........	1415.11
	26	6.75	-2.52458E-001	-2.50891E-001	0.00000E+000	...........	1415.11
	27	7	-2.51947E-001	-2.50388E-001	0.00000E+000	...........	1415.11
	28	7.25	-2.51440E-001	-2.49903E-001	0.00000E+000	...........	1415.11
	29	7.5	-2.50936E-001	-2.49409E-001	0.00000E+000	...........	1415.11
	30	7.75	-2.50436E-001	-2.48913E-001	0.00000E+000	...........	1415.11
	31	8	-2.49940E-001	-2.48429E-001	0.00000E+000	...........	1415.11
	32	8.25	-2.49447E-001	-2.47941E-001	0.00000E+000	...........	1415.11
	33	8.5	-2.48956E-001	-2.47457E-001	0.00000E+000	...........	1415.11
	34	8.75	-2.48468E-001	-2.46982E-001	0.00000E+000	...........	1415.11
	35	9	-2.47982E-001	-2.46509E-001	0.00000E+000	...........	1415.11
	36	9.25	-2.47500E-001	-2.46033E-001	0.00000E+000	...........	1415.11
	37	9.5	-2.47021E-001	-2.45564E-001	0.00000E+000	...........	1415.09
	38	9.75	-2.46546E-001	-2.45099E-001	0.00000E+000	...........	1415.02
	39	10	-2.46073E-001	-2.44636E-001	0.00000E+000	...........	1415.02
EOC	QUANT	-0.2460731	Open Circuit (V)
PSTATMODEL	IQUANT	64	Pstat Model
PSTATSECTION	LABEL	IFC1010-22099	Pstat Section
PSTATSERIALNO	LABEL	22099	Pstat Serial Number
CTRLMODE	IQUANT	1	Control Mode
ELECTROMETER	IQUANT	0	RE=0 or CS=1
IESTAB	IQUANT	0	I/E Stability
CASPEED	IQUANT	3	Control Amp Speed
CONVENTION	IQUANT	1	Current Convention
ICHRANGE	IQUANT	2	Ich Range
ICHRANGEMODE	TOGGLE	F	Ich Auto Range
ICHOFFSETENABLE	TOGGLE	T	Ich Offset Enable
ICHOFFSET	QUANT	0	Ich Offset (V)
ICHFILTER	IQUANT	4	Ich Filter
VCHRANGE	IQUANT	2	Vch Range
VCHRANGEMODE	TOGGLE	F	Vch Auto Range
VCHOFFSETENABLE	TOGGLE	T	Vch Offset Enable
VCHOFFSET	QUANT	0	Vch Offset (V)
VCHFILTER	IQUANT	4	Vch Filter
IERANGELOWERLIMIT	IQUANT	4	I/E Range Lower Limit
IERANGEMODE	TOGGLE	F	I/E AutoRange
IERANGE	IQUANT	7	I/E Range
ACHSELECT	IQUANT	0	Ach Select
ACHRANGE	IQUANT	2	Ach Range
ACHOFFSETENABLE	TOGGLE	F	Ach Offset Enable
ACHOFFSET	QUANT	0	Ach Offset (V)
ACHFILTER	IQUANT	1	Ach Filter
SENSECABLEID	IQUANT	14	Sense Cable ID
PWRCABLEID	IQUANT	14	Power Cable ID
DCCALDATE	LABEL	11/25/2025	DC Calibration Date
ACCALDATE	LABEL	9/8/2018	AC Calibration Date
FRAMEWORKVERSION	QUANT	7.07	Framework Version
INSTRUMENTVERSION	LABEL	4.34	Instrument Version
ZCURVE	TABLE
	Pt	Time	Freq	Zreal	Zimag	Zsig	Zmod	Zphz	Idc	Vdc	IERange
	#	s	Hz	ohm	ohm	V	ohm	°	A	V	#
	0	8	1004.464	242.9784	-35.80694	1	245.6026	-8.383156	-6.4443E-005	-1.400019	9
	1	10	800.3049	245.132	-42.51083	1	248.7908	-9.8384	-6.050071E-005	-1.400017	9
	2	13	631.0096	247.7782	-50.95599	1	252.9635	-11.62095	-5.864774E-005	-1.400023	9
	3	15	498.6702	250.7848	-61.12638	1	258.1268	-13.6982	-5.80087E-005	-1.400019	9
	4	17	397.2458	254.1268	-73.05463	1	264.419	-16.03852	-5.798976E-005	-1.400018	9
	5	20	319.6023	257.9072	-86.82384	1	272.1295	-18.60569	-5.847079E-005	-1.40002	9
	6	22	251.1161	262.8777	-105.69	1	283.3286	-21.90259	-5.878173E-005	-1.400019	9
	7	25	200.8929	268.5993	-127.1533	1	297.176	-25.3326	-5.919971E-005	-1.40002	9
	8	27	158.0056	276.6498	-155.6498	1	317.4303	-29.36314	-5.966297E-005	-1.40002	9
	9	30	125.558	286.9897	-189.1103	1	343.6943	-33.38266	-6.015189E-005	-1.40002	9
	10	32	99.734	301.188	-229.8289	1	378.8608	-37.34634	-6.053058E-005	-1.400019	9
	11	34	79.44915	320.4771	-278.3961	1	424.5114	-40.98061	-6.096296E-005	-1.400008	9
	12	37	63.34459	347.0429	-335.5578	1	482.74	-44.03606	-6.127721E-005	-1.400007	9
	13	39	49.86702	386.2477	-406.4426	1	560.6986	-46.45938	-6.167701E-005	-1.400008	9
	14	42	38.10976	447.9587	-498.0063	1	669.8337	-48.02849	-6.166218E-005	-1.399976	8
	15	44	31.25	509.5269	-571.7336	1	765.8309	-48.29269	-6.194058E-005	-1.399977	8
	16	46	24.93351	600.1033	-660.5444	1	892.4365	-47.74492	-6.219884E-005	-1.399976	8
	17	49	19.94681	714.1608	-746.3875	1	1033.015	-46.26401	-6.25535E-005	-1.399976	8
	18	52	15.57309	870.0892	-830.3475	1	1202.719	-43.66116	-6.281491E-005	-1.399974	8
	19	55	12.40079	1037.232	-885.8286	1	1364.017	-40.49836	-6.307001E-005	-1.399976	8
	20	58	9.91015	1213.919	-913.1772	1	1519.043	-36.95251	-6.340339E-005	-1.399975	8
	21	62	7.971939	1388.797	-911.7111	1	1661.317	-33.28392	-6.363739E-005	-1.399973	8
	22	65	6.351626	1559.525	-881.1407	1	1791.236	-29.4667	-6.400083E-005	-1.399974	8
	23	70	4.970838	1723.954	-827.475	1	1912.258	-25.64039	-6.439409E-005	-1.399974	8
	24	75	3.942389	1855.731	-765.488	1	2007.413	-22.41613	-6.485741E-005	-1.399973	8
	25	80	3.16723	1958.393	-704.4181	1	2081.227	-19.78325	-6.526081E-005	-1.399973	8
	26	87	2.485419	2054.4	-641.7729	1	2152.309	-17.34825	-6.575042E-005	-1.399973	8
	27	94	1.971194	2135.235	-587.9602	1	2214.706	-15.39548	-6.626672E-005	-1.399973	8
	28	104	1.605308	2191.533	-543.4738	1	2257.915	-13.92769	-6.671582E-005	-1.399972	8
	29	114	1.260081	2254.35	-498.142	1	2308.731	-12.46038	-6.736029E-005	-1.39997	8
	30	128	1.001603	2306.521	-461.0245	1	2352.145	-11.30325	-6.785869E-005	-1.39997	8
