EXPLAIN
TAG	EISPOT
TITLE	LABEL	Potentiostatic EIS	Test &Identifier
DATE	LABEL	4/22/2026	Date
TIME	LABEL	13:03:02	Time
NOTES	NOTES	1	&Notes...
	
PSTAT	PSTAT	Rhea	Potentiostat
VDC	POTEN	-1.40000E+000	F	DC &Voltage (V)
FREQINIT	QUANT	1.00000E+003	Initial Fre&q. (Hz)
FREQFINAL	QUANT	1.00000E+000	Final Fre&q. (Hz)
PTSPERDEC	QUANT	1.00000E+001	Points/&decade
VAC	QUANT	1.00000E+001	AC &Voltage (mV rms)
AREA	QUANT	2.80000E-001	&Area (cm^2)
CONDIT	TWOPARAM	F	0.00000E+000	0.00000E+000	Conditionin&g	Time(s)	E(V)
DELAY	TWOPARAM	T	1.00000E+001	0.00000E+000	Init. De&lay	Time(s)	Stab.(mV/s)
SPEED	SELECTOR	2	&Optimize for:
ZGUESS	QUANT	2.86800E+005	E&stimated Z (ohms)
OCVCURVE	TABLE	40
	Pt	T	Vf	Vm	Ach	Over	Temp
	#	s	V vs. Ref.	V	V	bits	deg C
	0	0.25	-1.93090E-001	-1.93090E-001	0.00000E+000	...........	1415.55
	1	0.5	-1.93055E-001	-1.91278E-001	0.00000E+000	...........	1415.55
	2	0.75	-1.92841E-001	-1.89486E-001	0.00000E+000	...........	1415.55
	3	1	-1.92231E-001	-1.87727E-001	0.00000E+000	...........	1415.55
	4	1.25	-1.91125E-001	-1.86002E-001	0.00000E+000	...........	1415.19
	5	1.5	-1.89630E-001	-1.84303E-001	0.00000E+000	...........	1415.19
	6	1.75	-1.87938E-001	-1.82582E-001	0.00000E+000	...........	1415.19
	7	2	-1.86191E-001	-1.80935E-001	0.00000E+000	...........	1415.19
	8	2.25	-1.84457E-001	-1.79328E-001	0.00000E+000	...........	1415.19
	9	2.5	-1.82756E-001	-1.77747E-001	0.00000E+000	...........	1415.19
	10	2.75	-1.81097E-001	-1.76192E-001	0.00000E+000	...........	1415.19
	11	3	-1.79476E-001	-1.74666E-001	0.00000E+000	...........	1415.19
	12	3.25	-1.77889E-001	-1.73164E-001	0.00000E+000	...........	1415.46
	13	3.5	-1.76332E-001	-1.71684E-001	0.00000E+000	...........	1415.46
	14	3.75	-1.74802E-001	-1.70234E-001	0.00000E+000	...........	1415.46
	15	4	-1.73298E-001	-1.68808E-001	0.00000E+000	...........	1415.46
	16	4.25	-1.71819E-001	-1.67405E-001	0.00000E+000	...........	1415.19
	17	4.5	-1.70365E-001	-1.66026E-001	0.00000E+000	...........	1415.19
	18	4.75	-1.68936E-001	-1.64661E-001	0.00000E+000	...........	1415.19
	19	5	-1.67531E-001	-1.63328E-001	0.00000E+000	...........	1415.19
	20	5.25	-1.66147E-001	-1.62007E-001	0.00000E+000	...........	1415.19
	21	5.5	-1.64785E-001	-1.60682E-001	0.00000E+000	...........	1415.19
	22	5.75	-1.63442E-001	-1.59417E-001	0.00000E+000	...........	1415.19
	23	6	-1.62117E-001	-1.58170E-001	0.00000E+000	...........	1415.19
	24	6.25	-1.60814E-001	-1.56946E-001	0.00000E+000	...........	1415.46
	25	6.5	-1.59536E-001	-1.55746E-001	0.00000E+000	...........	1415.46
	26	6.75	-1.58284E-001	-1.54561E-001	0.00000E+000	...........	1415.46
	27	7	-1.57057E-001	-1.53397E-001	0.00000E+000	...........	1415.46
	28	7.25	-1.55852E-001	-1.52252E-001	0.00000E+000	...........	1415.63
	29	7.5	-1.54667E-001	-1.51132E-001	0.00000E+000	...........	1415.63
	30	7.75	-1.53503E-001	-1.50029E-001	0.00000E+000	...........	1415.63
	31	8	-1.52358E-001	-1.48938E-001	0.00000E+000	...........	1415.63
	32	8.25	-1.51232E-001	-1.47859E-001	0.00000E+000	...........	1415.63
	33	8.5	-1.50124E-001	-1.46801E-001	0.00000E+000	...........	1415.63
	34	8.75	-1.49033E-001	-1.45762E-001	0.00000E+000	...........	1415.63
	35	9	-1.47957E-001	-1.44739E-001	0.00000E+000	...........	1415.63
	36	9.25	-1.46898E-001	-1.43734E-001	0.00000E+000	...........	1415.63
	37	9.5	-1.45856E-001	-1.42747E-001	0.00000E+000	...........	1415.63
	38	9.75	-1.44832E-001	-1.41773E-001	0.00000E+000	...........	1415.63
	39	10	-1.43825E-001	-1.40813E-001	0.00000E+000	...........	1415.63
EOC	QUANT	-0.1438249	Open Circuit (V)
PSTATMODEL	IQUANT	64	Pstat Model
PSTATSECTION	LABEL	IFC1010-22099	Pstat Section
PSTATSERIALNO	LABEL	22099	Pstat Serial Number
CTRLMODE	IQUANT	1	Control Mode
ELECTROMETER	IQUANT	0	RE=0 or CS=1
IESTAB	IQUANT	0	I/E Stability
CASPEED	IQUANT	3	Control Amp Speed
CONVENTION	IQUANT	1	Current Convention
ICHRANGE	IQUANT	2	Ich Range
ICHRANGEMODE	TOGGLE	F	Ich Auto Range
ICHOFFSETENABLE	TOGGLE	T	Ich Offset Enable
ICHOFFSET	QUANT	0	Ich Offset (V)
ICHFILTER	IQUANT	4	Ich Filter
VCHRANGE	IQUANT	2	Vch Range
VCHRANGEMODE	TOGGLE	F	Vch Auto Range
VCHOFFSETENABLE	TOGGLE	T	Vch Offset Enable
VCHOFFSET	QUANT	0	Vch Offset (V)
VCHFILTER	IQUANT	4	Vch Filter
IERANGELOWERLIMIT	IQUANT	4	I/E Range Lower Limit
IERANGEMODE	TOGGLE	F	I/E AutoRange
IERANGE	IQUANT	7	I/E Range
ACHSELECT	IQUANT	0	Ach Select
ACHRANGE	IQUANT	2	Ach Range
ACHOFFSETENABLE	TOGGLE	F	Ach Offset Enable
ACHOFFSET	QUANT	0	Ach Offset (V)
ACHFILTER	IQUANT	1	Ach Filter
SENSECABLEID	IQUANT	14	Sense Cable ID
PWRCABLEID	IQUANT	14	Power Cable ID
DCCALDATE	LABEL	11/25/2025	DC Calibration Date
ACCALDATE	LABEL	9/8/2018	AC Calibration Date
FRAMEWORKVERSION	QUANT	7.07	Framework Version
INSTRUMENTVERSION	LABEL	4.34	Instrument Version
ZCURVE	TABLE
	Pt	Time	Freq	Zreal	Zimag	Zsig	Zmod	Zphz	Idc	Vdc	IERange
	#	s	Hz	ohm	ohm	V	ohm	°	A	V	#
	0	7	1004.464	311.1086	-49.88145	1	315.082	-9.108965	-5.715559E-005	-1.400028	9
	1	9	800.3049	314.1462	-57.99615	1	319.4548	-10.4599	-5.459992E-005	-1.400028	9
	2	12	631.0096	317.8765	-68.44577	1	325.162	-12.15151	-5.303416E-005	-1.400025	9
	3	14	498.6702	322.055	-81.22553	1	332.14	-14.15536	-5.209184E-005	-1.400025	9
	4	17	397.2458	327.2272	-96.5498	1	341.1737	-16.43893	-5.154522E-005	-1.400027	9
	5	19	319.6023	332.1163	-114.8317	1	351.408	-19.07322	-5.099089E-005	-1.400027	9
	6	22	251.1161	338.4131	-140.0148	1	366.2343	-22.47681	-5.056178E-005	-1.400025	9
	7	24	200.8929	346.3591	-169.1454	1	385.454	-26.0287	-5.020551E-005	-1.400026	9
	8	26	158.0056	357.2298	-207.957	1	413.3513	-30.20531	-4.956847E-005	-1.399999	8
	9	29	125.558	371.3271	-253.765	1	449.7561	-34.34871	-4.939166E-005	-1.399999	8
	10	31	99.734	390.7775	-309.3293	1	498.3891	-38.36422	-4.916283E-005	-1.400002	8
	11	34	79.44915	418.9084	-375.4178	1	562.5147	-41.8661	-4.900856E-005	-1.399991	8
	12	36	63.34459	457.9487	-453.2529	1	644.3254	-44.70473	-4.887562E-005	-1.399992	8
	13	39	49.86702	517.0367	-549.6077	1	754.5831	-46.74903	-4.871769E-005	-1.399991	8
	14	41	38.10976	608.7213	-671.7976	1	906.5614	-47.82002	-4.86947E-005	-1.399992	8
	15	43	31.25	689.6682	-769.8617	1	1033.6	-48.14494	-4.863526E-005	-1.399992	8
	16	46	24.93351	810.371	-885.1057	1	1200.047	-47.5239	-4.855584E-005	-1.39999	8
	17	49	19.94681	962.917	-995.784	1	1385.206	-45.96135	-4.84278E-005	-1.39999	8
	18	52	15.57309	1167.822	-1102.907	1	1606.304	-43.36249	-4.840294E-005	-1.39999	8
	19	55	12.40079	1382.602	-1177.474	1	1816.048	-40.41891	-4.83261E-005	-1.399991	8
	20	58	9.91015	1608.127	-1225.175	1	2021.664	-37.30249	-4.827855E-005	-1.39999	8
	21	61	7.971939	1829.361	-1243.224	1	2211.825	-34.19983	-4.824845E-005	-1.399992	8
	22	65	6.351626	2052.454	-1240.675	1	2398.3	-31.15227	-4.835704E-005	-1.399991	8
	23	69	4.970838	2280.322	-1222.256	1	2587.234	-28.19138	-4.832899E-005	-1.399991	8
	24	74	3.942389	2481.165	-1200.831	1	2756.479	-25.826	-4.825095E-005	-1.39999	8
	25	80	3.16723	2668.209	-1184.843	1	2919.45	-23.94406	-4.818082E-005	-1.39999	8
	26	87	2.485419	2870.493	-1168.801	1	3099.327	-22.15507	-4.814088E-005	-1.399992	8
	27	94	1.971194	3054.108	-1157.812	1	3266.206	-20.76171	-4.819574E-005	-1.399991	8
	28	103	1.605308	3219.236	-1160.952	1	3422.176	-19.8308	-4.825905E-005	-1.39999	8
	29	114	1.260081	3415.619	-1176.075	1	3612.423	-18.99974	-4.826049E-005	-1.39999	8
	30	127	1.001603	3601.585	-1212.255	1	3800.128	-18.60268	-4.865859E-005	-1.399989	8
