EXPLAIN
TAG	EISPOT
TITLE	LABEL	Potentiostatic EIS	Test &Identifier
DATE	LABEL	4/22/2026	Date
TIME	LABEL	13:15:59	Time
NOTES	NOTES	1	&Notes...
	
PSTAT	PSTAT	Rhea	Potentiostat
VDC	POTEN	-1.40000E+000	F	DC &Voltage (V)
FREQINIT	QUANT	1.00000E+003	Initial Fre&q. (Hz)
FREQFINAL	QUANT	1.00000E+000	Final Fre&q. (Hz)
PTSPERDEC	QUANT	1.00000E+001	Points/&decade
VAC	QUANT	1.00000E+001	AC &Voltage (mV rms)
AREA	QUANT	2.80000E-001	&Area (cm^2)
CONDIT	TWOPARAM	F	0.00000E+000	0.00000E+000	Conditionin&g	Time(s)	E(V)
DELAY	TWOPARAM	T	1.00000E+001	0.00000E+000	Init. De&lay	Time(s)	Stab.(mV/s)
SPEED	SELECTOR	2	&Optimize for:
ZGUESS	QUANT	2.86800E+005	E&stimated Z (ohms)
OCVCURVE	TABLE	40
	Pt	T	Vf	Vm	Ach	Over	Temp
	#	s	V vs. Ref.	V	V	bits	deg C
	0	0.25	-6.84453E-002	-6.84453E-002	0.00000E+000	...........	1415.02
	1	0.5	-6.84437E-002	-6.83627E-002	0.00000E+000	...........	1415.02
	2	0.75	-6.84339E-002	-6.82790E-002	0.00000E+000	...........	1415.02
	3	1	-6.84058E-002	-6.81939E-002	0.00000E+000	...........	1415.02
	4	1.25	-6.83544E-002	-6.81108E-002	0.00000E+000	...........	1415.63
	5	1.5	-6.82841E-002	-6.80272E-002	0.00000E+000	...........	1415.63
	6	1.75	-6.82033E-002	-6.79394E-002	0.00000E+000	...........	1415.63
	7	2	-6.81186E-002	-6.78528E-002	0.00000E+000	...........	1415.63
	8	2.25	-6.80328E-002	-6.77713E-002	0.00000E+000	...........	1415.63
	9	2.5	-6.79470E-002	-6.76889E-002	0.00000E+000	...........	1415.63
	10	2.75	-6.78620E-002	-6.76082E-002	0.00000E+000	...........	1415.63
	11	3	-6.77784E-002	-6.75271E-002	0.00000E+000	...........	1415.63
	12	3.25	-6.76960E-002	-6.74461E-002	0.00000E+000	...........	1415.63
	13	3.5	-6.76145E-002	-6.73679E-002	0.00000E+000	...........	1415.63
	14	3.75	-6.75337E-002	-6.72872E-002	0.00000E+000	...........	1415.63
	15	4	-6.74534E-002	-6.72081E-002	0.00000E+000	...........	1415.63
	16	4.25	-6.73735E-002	-6.71305E-002	0.00000E+000	...........	1415.63
	17	4.5	-6.72940E-002	-6.70513E-002	0.00000E+000	...........	1415.63
	18	4.75	-6.72150E-002	-6.69742E-002	0.00000E+000	...........	1415.63
	19	5	-6.71363E-002	-6.68964E-002	0.00000E+000	...........	1415.63
	20	5.25	-6.70581E-002	-6.68186E-002	0.00000E+000	...........	1415.63
	21	5.5	-6.69801E-002	-6.67416E-002	0.00000E+000	...........	1415.63
	22	5.75	-6.69024E-002	-6.66646E-002	0.00000E+000	...........	1415.63
	23	6	-6.68250E-002	-6.65883E-002	0.00000E+000	...........	1415.63
	24	6.25	-6.67478E-002	-6.65109E-002	0.00000E+000	...........	1415.63
	25	6.5	-6.66709E-002	-6.64379E-002	0.00000E+000	...........	1415.63
	26	6.75	-6.65944E-002	-6.63619E-002	0.00000E+000	...........	1415.63
	27	7	-6.65184E-002	-6.62859E-002	0.00000E+000	...........	1415.63
	28	7.25	-6.64429E-002	-6.62113E-002	0.00000E+000	...........	1415.63
	29	7.5	-6.63676E-002	-6.61403E-002	0.00000E+000	...........	1415.63
	30	7.75	-6.62928E-002	-6.60675E-002	0.00000E+000	...........	1415.63
	31	8	-6.62188E-002	-6.59962E-002	0.00000E+000	...........	1415.63
	32	8.25	-6.61458E-002	-6.59242E-002	0.00000E+000	...........	1415.63
	33	8.5	-6.60736E-002	-6.58550E-002	0.00000E+000	...........	1415.63
	34	8.75	-6.60019E-002	-6.57840E-002	0.00000E+000	...........	1415.63
	35	9	-6.59308E-002	-6.57146E-002	0.00000E+000	...........	1415.63
	36	9.25	-6.58601E-002	-6.56426E-002	0.00000E+000	...........	1415.63
	37	9.5	-6.57897E-002	-6.55728E-002	0.00000E+000	...........	1415.63
	38	9.75	-6.57192E-002	-6.55026E-002	0.00000E+000	...........	1415.63
	39	10	-6.56487E-002	-6.54314E-002	0.00000E+000	...........	1415.63
EOC	QUANT	-0.0656487	Open Circuit (V)
PSTATMODEL	IQUANT	64	Pstat Model
PSTATSECTION	LABEL	IFC1010-22099	Pstat Section
PSTATSERIALNO	LABEL	22099	Pstat Serial Number
CTRLMODE	IQUANT	1	Control Mode
ELECTROMETER	IQUANT	0	RE=0 or CS=1
IESTAB	IQUANT	0	I/E Stability
CASPEED	IQUANT	3	Control Amp Speed
CONVENTION	IQUANT	1	Current Convention
ICHRANGE	IQUANT	2	Ich Range
ICHRANGEMODE	TOGGLE	F	Ich Auto Range
ICHOFFSETENABLE	TOGGLE	T	Ich Offset Enable
ICHOFFSET	QUANT	0	Ich Offset (V)
ICHFILTER	IQUANT	4	Ich Filter
VCHRANGE	IQUANT	2	Vch Range
VCHRANGEMODE	TOGGLE	F	Vch Auto Range
VCHOFFSETENABLE	TOGGLE	T	Vch Offset Enable
VCHOFFSET	QUANT	0	Vch Offset (V)
VCHFILTER	IQUANT	4	Vch Filter
IERANGELOWERLIMIT	IQUANT	4	I/E Range Lower Limit
IERANGEMODE	TOGGLE	F	I/E AutoRange
IERANGE	IQUANT	7	I/E Range
ACHSELECT	IQUANT	0	Ach Select
ACHRANGE	IQUANT	2	Ach Range
ACHOFFSETENABLE	TOGGLE	F	Ach Offset Enable
ACHOFFSET	QUANT	0	Ach Offset (V)
ACHFILTER	IQUANT	1	Ach Filter
SENSECABLEID	IQUANT	14	Sense Cable ID
PWRCABLEID	IQUANT	14	Power Cable ID
DCCALDATE	LABEL	11/25/2025	DC Calibration Date
ACCALDATE	LABEL	9/8/2018	AC Calibration Date
FRAMEWORKVERSION	QUANT	7.07	Framework Version
INSTRUMENTVERSION	LABEL	4.34	Instrument Version
ZCURVE	TABLE
	Pt	Time	Freq	Zreal	Zimag	Zsig	Zmod	Zphz	Idc	Vdc	IERange
	#	s	Hz	ohm	ohm	V	ohm	°	A	V	#
	0	8	1004.464	305.4792	-46.50134	1	308.9983	-8.655359	-6.760853E-005	-1.400033	9
	1	11	800.3049	308.2421	-54.68524	1	313.0553	-10.06017	-6.398991E-005	-1.40003	9
	2	13	631.0096	311.507	-65.22517	1	318.2623	-11.82608	-6.208746E-005	-1.400027	9
	3	15	498.6702	315.1763	-78.09821	1	324.7083	-13.91712	-6.0985E-005	-1.400029	9
	4	18	397.2458	319.1205	-93.50816	1	332.5382	-16.33155	-6.034246E-005	-1.400027	9
	5	21	319.6023	323.4548	-111.6029	1	342.167	-19.03617	-5.982985E-005	-1.400025	9
	6	23	251.1161	329.6709	-136.6974	1	356.888	-22.52126	-5.940215E-005	-1.400025	9
	7	26	200.8929	337.153	-165.4116	1	375.5439	-26.13316	-5.921429E-005	-1.400027	9
	8	28	158.0056	348.0889	-203.5473	1	403.2336	-30.31725	-5.895471E-005	-1.400025	9
	9	30	125.558	362.3659	-248.4794	1	439.3758	-34.43899	-5.870261E-005	-1.400026	9
	10	33	99.734	382.3652	-303.0848	1	487.9176	-38.40239	-5.85854E-005	-1.40003	9
	11	35	79.44915	409.8712	-367.1949	1	550.2967	-41.85649	-5.809571E-005	-1.399988	8
	12	38	63.34459	447.6968	-442.6815	1	629.6025	-44.67727	-5.797341E-005	-1.399986	8
	13	40	49.86702	503.0864	-534.0899	1	733.722	-46.71219	-5.774141E-005	-1.399988	8
	14	43	38.10976	590.559	-651.455	1	879.2914	-47.80696	-5.785289E-005	-1.399989	8
	15	45	31.25	676.0497	-745.3094	1	1006.245	-47.78969	-5.772542E-005	-1.399988	8
	16	48	24.93351	800.3521	-853.1229	1	1169.779	-46.82798	-5.761619E-005	-1.399989	8
	17	51	19.94681	952.668	-955.123	1	1349.013	-45.07372	-5.747829E-005	-1.399989	8
	18	53	15.57309	1152.335	-1050.429	1	1559.255	-42.35122	-5.727836E-005	-1.399987	8
	19	56	12.40079	1359.67	-1113.943	1	1757.718	-39.32689	-5.716266E-005	-1.399989	8
	20	60	9.91015	1573.71	-1151.543	1	1950.03	-36.19433	-5.735601E-005	-1.399988	8
	21	63	7.971939	1780.698	-1160.482	1	2125.466	-33.0923	-5.707367E-005	-1.399989	8
	22	67	6.351626	1988.436	-1152.778	1	2298.428	-30.10263	-5.67908E-005	-1.399989	8
	23	71	4.970838	2199.026	-1131.564	1	2473.086	-27.22923	-5.665421E-005	-1.399989	8
	24	76	3.942389	2384.367	-1109.267	1	2629.768	-24.94903	-5.664071E-005	-1.399989	8
	25	82	3.16723	2553.993	-1085.645	1	2775.159	-23.02926	-5.666753E-005	-1.399989	8
	26	88	2.485419	2739.769	-1084.057	1	2946.441	-21.58744	-5.72925E-005	-1.399989	8
	27	96	1.971194	2902.439	-1077.153	1	3095.87	-20.36089	-5.699801E-005	-1.399989	8
	28	105	1.605308	3065.302	-1077.045	1	3249.015	-19.35978	-5.700653E-005	-1.399988	8
	29	116	1.260081	3241.513	-1091.275	1	3420.276	-18.60612	-5.70832E-005	-1.399989	8
	30	129	1.001603	3405.777	-1103.705	1	3580.151	-17.95588	-5.707999E-005	-1.399986	8
