EXPLAIN
TAG	EISPOT
TITLE	LABEL	Potentiostatic EIS	Test &Identifier
DATE	LABEL	4/22/2026	Date
TIME	LABEL	13:20:54	Time
NOTES	NOTES	1	&Notes...
	
PSTAT	PSTAT	Rhea	Potentiostat
VDC	POTEN	-1.60000E+000	F	DC &Voltage (V)
FREQINIT	QUANT	1.00000E+003	Initial Fre&q. (Hz)
FREQFINAL	QUANT	1.00000E+000	Final Fre&q. (Hz)
PTSPERDEC	QUANT	1.00000E+001	Points/&decade
VAC	QUANT	1.00000E+001	AC &Voltage (mV rms)
AREA	QUANT	2.80000E-001	&Area (cm^2)
CONDIT	TWOPARAM	F	0.00000E+000	0.00000E+000	Conditionin&g	Time(s)	E(V)
DELAY	TWOPARAM	T	1.00000E+001	0.00000E+000	Init. De&lay	Time(s)	Stab.(mV/s)
SPEED	SELECTOR	2	&Optimize for:
ZGUESS	QUANT	2.86800E+005	E&stimated Z (ohms)
OCVCURVE	TABLE	40
	Pt	T	Vf	Vm	Ach	Over	Temp
	#	s	V vs. Ref.	V	V	bits	deg C
	0	0.25	-9.08383E-002	-9.08383E-002	0.00000E+000	...........	1415.90
	1	0.5	-9.08379E-002	-9.08206E-002	0.00000E+000	...........	1415.90
	2	0.75	-9.08359E-002	-9.08039E-002	0.00000E+000	...........	1415.37
	3	1	-9.08299E-002	-9.07832E-002	0.00000E+000	...........	1415.37
	4	1.25	-9.08189E-002	-9.07641E-002	0.00000E+000	...........	1415.37
	5	1.5	-9.08034E-002	-9.07418E-002	0.00000E+000	...........	1415.37
	6	1.75	-9.07850E-002	-9.07210E-002	0.00000E+000	...........	1415.46
	7	2	-9.07649E-002	-9.07000E-002	0.00000E+000	...........	1415.46
	8	2.25	-9.07439E-002	-9.06772E-002	0.00000E+000	...........	1415.46
	9	2.5	-9.07225E-002	-9.06518E-002	0.00000E+000	...........	1415.46
	10	2.75	-9.07005E-002	-9.06286E-002	0.00000E+000	...........	1415.46
	11	3	-9.06777E-002	-9.06001E-002	0.00000E+000	...........	1415.46
	12	3.25	-9.06537E-002	-9.05744E-002	0.00000E+000	...........	1415.46
	13	3.5	-9.06287E-002	-9.05518E-002	0.00000E+000	...........	1415.46
	14	3.75	-9.06034E-002	-9.05368E-002	0.00000E+000	...........	1415.11
	15	4	-9.05793E-002	-9.05181E-002	0.00000E+000	...........	1415.11
	16	4.25	-9.05572E-002	-9.04939E-002	0.00000E+000	...........	1415.11
	17	4.5	-9.05368E-002	-9.04722E-002	0.00000E+000	...........	1415.11
	18	4.75	-9.05165E-002	-9.04456E-002	0.00000E+000	...........	1415.11
	19	5	-9.04951E-002	-9.04213E-002	0.00000E+000	...........	1415.11
	20	5.25	-9.04722E-002	-9.03978E-002	0.00000E+000	...........	1415.11
	21	5.5	-9.04482E-002	-9.03734E-002	0.00000E+000	...........	1415.11
	22	5.75	-9.04239E-002	-9.03508E-002	0.00000E+000	...........	1415.55
	23	6	-9.03998E-002	-9.03263E-002	0.00000E+000	...........	1415.55
	24	6.25	-9.03759E-002	-9.03069E-002	0.00000E+000	...........	1415.55
	25	6.5	-9.03526E-002	-9.02847E-002	0.00000E+000	...........	1415.55
	26	6.75	-9.03301E-002	-9.02684E-002	0.00000E+000	...........	1415.11
	27	7	-9.03086E-002	-9.02482E-002	0.00000E+000	...........	1415.11
	28	7.25	-9.02883E-002	-9.02284E-002	0.00000E+000	...........	1415.11
	29	7.5	-9.02687E-002	-9.02059E-002	0.00000E+000	...........	1415.11
	30	7.75	-9.02490E-002	-9.01830E-002	0.00000E+000	...........	1415.11
	31	8	-9.02285E-002	-9.01603E-002	0.00000E+000	...........	1415.11
	32	8.25	-9.02071E-002	-9.01409E-002	0.00000E+000	...........	1415.11
	33	8.5	-9.01853E-002	-9.01234E-002	0.00000E+000	...........	1415.11
	34	8.75	-9.01639E-002	-9.01006E-002	0.00000E+000	...........	1415.11
	35	9	-9.01432E-002	-9.00761E-002	0.00000E+000	...........	1415.11
	36	9.25	-9.01225E-002	-9.00546E-002	0.00000E+000	...........	1415.11
	37	9.5	-9.01010E-002	-9.00312E-002	0.00000E+000	...........	1415.11
	38	9.75	-9.00787E-002	-9.00073E-002	0.00000E+000	...........	1415.11
	39	10	-9.00558E-002	-8.99816E-002	0.00000E+000	...........	1415.11
EOC	QUANT	-0.0900558	Open Circuit (V)
PSTATMODEL	IQUANT	64	Pstat Model
PSTATSECTION	LABEL	IFC1010-22099	Pstat Section
PSTATSERIALNO	LABEL	22099	Pstat Serial Number
CTRLMODE	IQUANT	1	Control Mode
ELECTROMETER	IQUANT	0	RE=0 or CS=1
IESTAB	IQUANT	0	I/E Stability
CASPEED	IQUANT	3	Control Amp Speed
CONVENTION	IQUANT	1	Current Convention
ICHRANGE	IQUANT	2	Ich Range
ICHRANGEMODE	TOGGLE	F	Ich Auto Range
ICHOFFSETENABLE	TOGGLE	T	Ich Offset Enable
ICHOFFSET	QUANT	0	Ich Offset (V)
ICHFILTER	IQUANT	4	Ich Filter
VCHRANGE	IQUANT	2	Vch Range
VCHRANGEMODE	TOGGLE	F	Vch Auto Range
VCHOFFSETENABLE	TOGGLE	T	Vch Offset Enable
VCHOFFSET	QUANT	0	Vch Offset (V)
VCHFILTER	IQUANT	4	Vch Filter
IERANGELOWERLIMIT	IQUANT	4	I/E Range Lower Limit
IERANGEMODE	TOGGLE	F	I/E AutoRange
IERANGE	IQUANT	7	I/E Range
ACHSELECT	IQUANT	0	Ach Select
ACHRANGE	IQUANT	2	Ach Range
ACHOFFSETENABLE	TOGGLE	F	Ach Offset Enable
ACHOFFSET	QUANT	0	Ach Offset (V)
ACHFILTER	IQUANT	1	Ach Filter
SENSECABLEID	IQUANT	14	Sense Cable ID
PWRCABLEID	IQUANT	14	Power Cable ID
DCCALDATE	LABEL	11/25/2025	DC Calibration Date
ACCALDATE	LABEL	9/8/2018	AC Calibration Date
FRAMEWORKVERSION	QUANT	7.07	Framework Version
INSTRUMENTVERSION	LABEL	4.34	Instrument Version
ZCURVE	TABLE
	Pt	Time	Freq	Zreal	Zimag	Zsig	Zmod	Zphz	Idc	Vdc	IERange
	#	s	Hz	ohm	ohm	V	ohm	°	A	V	#
	0	9	1004.464	290.9154	-37.94482	1	293.3796	-7.431278	-0.0001268	-1.600041	9
	1	11	800.3049	293.2237	-44.57163	1	296.5919	-8.643112	-0.0001239	-1.600042	9
	2	14	631.0096	296.0939	-52.80656	1	300.7659	-10.11204	-0.0001232	-1.600042	9
	3	16	498.6702	299.3156	-62.60773	1	305.7933	-11.81421	-0.0001231	-1.600042	9
	4	18	397.2458	303.2251	-74.31828	1	312.1997	-13.77131	-0.0001226	-1.600042	9
	5	21	319.6023	307.6414	-87.66695	1	319.8887	-15.90568	-0.0001226	-1.600043	9
	6	23	251.1161	313.6873	-105.6028	1	330.9859	-18.60579	-0.0001234	-1.600045	9
	7	26	200.8929	321.5487	-126.3753	1	345.4914	-21.45586	-0.0001229	-1.600036	9
	8	28	158.0056	332.7161	-153.0071	1	366.2119	-24.69641	-0.0001234	-1.600037	9
	9	30	125.558	347.5567	-183.3745	1	392.9655	-27.81659	-0.0001239	-1.600039	9
	10	33	99.734	368.2025	-218.4789	1	428.1426	-30.68346	-0.0001246	-1.600042	9
	11	35	79.44915	396.3866	-258.1437	1	473.0333	-33.07388	-0.0001249	-1.600031	9
	12	38	63.34459	433.9958	-300.6909	1	527.9842	-34.71587	-0.0001253	-1.600029	9
	13	40	49.86702	486.8667	-346.4569	1	597.5547	-35.43586	-0.0001258	-1.600028	9
	14	43	38.10976	562.916	-393.1804	1	686.6332	-34.93317	-0.0001262	-1.600029	9
	15	45	31.25	628.1947	-415.3224	1	753.0745	-33.47014	-0.0001274	-1.600032	9
	16	48	24.93351	712.8708	-432.7361	1	833.9336	-31.25913	-0.0001279	-1.600032	9
	17	50	19.94681	798.8022	-435.0093	1	909.5703	-28.57169	-0.0001285	-1.60003	9
	18	53	15.57309	890.6115	-419.287	1	984.373	-25.21038	-0.0001292	-1.600031	9
	19	56	12.40079	963.006	-386.8731	1	1037.811	-21.88705	-0.0001303	-1.60003	9
	20	59	9.91015	1027.886	-354.2578	1	1087.22	-19.01636	-0.0001303	-1.600032	9
	21	63	7.971939	1073.845	-313.6097	1	1118.702	-16.28012	-0.0001311	-1.60003	9
	22	66	6.351626	1109.113	-271.4938	1	1141.859	-13.75465	-0.000132	-1.600029	9
	23	71	4.970838	1123.567	-225.2367	1	1145.92	-11.3356	-0.0001341	-1.60003	9
	24	76	3.942389	1143.313	-190.9	1	1159.141	-9.479279	-0.0001346	-1.60003	9
	25	81	3.16723	1150.379	-162.7771	1	1161.839	-8.053805	-0.0001361	-1.600029	9
	26	88	2.485419	1147.286	-137.6715	1	1155.517	-6.842635	-0.0001377	-1.60003	9
	27	94	1.971194	1137.659	-115.4055	1	1143.498	-5.79234	-0.00014	-1.60003	9
	28	104	1.605308	1123.761	-99.0964	1	1128.122	-5.039463	-0.0001422	-1.600028	9
	29	114	1.260081	1107.305	-84.52248	1	1110.526	-4.365021	-0.0001446	-1.600028	9
	30	128	1.001603	1091.286	-73.37521	1	1093.75	-3.846628	-0.000147	-1.600029	9
