EXPLAIN
TAG	EISPOT
TITLE	LABEL	Potentiostatic EIS	Test &Identifier
DATE	LABEL	4/22/2026	Date
TIME	LABEL	12:06:10	Time
NOTES	NOTES	1	&Notes...
	
PSTAT	PSTAT	Rhea	Potentiostat
VDC	POTEN	-1.20000E+000	F	DC &Voltage (V)
FREQINIT	QUANT	1.00000E+003	Initial Fre&q. (Hz)
FREQFINAL	QUANT	1.00000E+000	Final Fre&q. (Hz)
PTSPERDEC	QUANT	1.00000E+001	Points/&decade
VAC	QUANT	1.00000E+001	AC &Voltage (mV rms)
AREA	QUANT	2.80000E-001	&Area (cm^2)
CONDIT	TWOPARAM	F	0.00000E+000	0.00000E+000	Conditionin&g	Time(s)	E(V)
DELAY	TWOPARAM	T	1.00000E+001	0.00000E+000	Init. De&lay	Time(s)	Stab.(mV/s)
SPEED	SELECTOR	2	&Optimize for:
ZGUESS	QUANT	2.86800E+005	E&stimated Z (ohms)
OCVCURVE	TABLE	40
	Pt	T	Vf	Vm	Ach	Over	Temp
	#	s	V vs. Ref.	V	V	bits	deg C
	0	0.25	5.67577E-002	5.67577E-002	0.00000E+000	...........	1407.99
	1	0.5	5.67639E-002	5.70820E-002	0.00000E+000	...........	1407.99
	2	0.75	5.68021E-002	5.74000E-002	0.00000E+000	...........	1408.26
	3	1	5.69113E-002	5.77197E-002	0.00000E+000	...........	1408.26
	4	1.25	5.71092E-002	5.80340E-002	0.00000E+000	...........	1408.26
	5	1.5	5.73777E-002	5.83481E-002	0.00000E+000	...........	1408.26
	6	1.75	5.76835E-002	5.86548E-002	0.00000E+000	...........	1408.26
	7	2	5.80008E-002	5.89636E-002	0.00000E+000	...........	1408.26
	8	2.25	5.83172E-002	5.92678E-002	0.00000E+000	...........	1408.26
	9	2.5	5.86294E-002	5.95689E-002	0.00000E+000	...........	1408.26
	10	2.75	5.89373E-002	5.98618E-002	0.00000E+000	...........	1408.26
	11	3	5.92413E-002	6.01564E-002	0.00000E+000	...........	1408.26
	12	3.25	5.95415E-002	6.04493E-002	0.00000E+000	...........	1408.26
	13	3.5	5.98384E-002	6.07409E-002	0.00000E+000	...........	1408.26
	14	3.75	6.01329E-002	6.10305E-002	0.00000E+000	...........	1408.34
	15	4	6.04257E-002	6.13181E-002	0.00000E+000	...........	1408.34
	16	4.25	6.07169E-002	6.16038E-002	0.00000E+000	...........	1408.34
	17	4.5	6.10065E-002	6.18881E-002	0.00000E+000	...........	1408.34
	18	4.75	6.12943E-002	6.21685E-002	0.00000E+000	...........	1408.34
	19	5	6.15801E-002	6.24471E-002	0.00000E+000	...........	1408.34
	20	5.25	6.18637E-002	6.27206E-002	0.00000E+000	...........	1408.34
	21	5.5	6.21447E-002	6.29973E-002	0.00000E+000	...........	1408.34
	22	5.75	6.24231E-002	6.32692E-002	0.00000E+000	...........	1408.43
	23	6	6.26995E-002	6.35411E-002	0.00000E+000	...........	1408.43
	24	6.25	6.29741E-002	6.38089E-002	0.00000E+000	...........	1408.43
	25	6.5	6.32470E-002	6.40769E-002	0.00000E+000	...........	1408.43
	26	6.75	6.35180E-002	6.43419E-002	0.00000E+000	...........	1408.43
	27	7	6.37872E-002	6.46037E-002	0.00000E+000	...........	1408.43
	28	7.25	6.40543E-002	6.48668E-002	0.00000E+000	...........	1408.43
	29	7.5	6.43195E-002	6.51247E-002	0.00000E+000	...........	1408.43
	30	7.75	6.45828E-002	6.53820E-002	0.00000E+000	...........	1408.43
	31	8	6.48440E-002	6.56359E-002	0.00000E+000	...........	1408.43
	32	8.25	6.51032E-002	6.58919E-002	0.00000E+000	...........	1408.43
	33	8.5	6.53606E-002	6.61469E-002	0.00000E+000	...........	1408.43
	34	8.75	6.56166E-002	6.63999E-002	0.00000E+000	...........	1408.43
	35	9	6.58717E-002	6.66543E-002	0.00000E+000	...........	1408.43
	36	9.25	6.61262E-002	6.69040E-002	0.00000E+000	...........	1408.43
	37	9.5	6.63799E-002	6.71501E-002	0.00000E+000	...........	1408.43
	38	9.75	6.66320E-002	6.73939E-002	0.00000E+000	...........	1408.43
	39	10	6.68819E-002	6.76385E-002	0.00000E+000	...........	1408.43
EOC	QUANT	0.0668819	Open Circuit (V)
PSTATMODEL	IQUANT	64	Pstat Model
PSTATSECTION	LABEL	IFC1010-22099	Pstat Section
PSTATSERIALNO	LABEL	22099	Pstat Serial Number
CTRLMODE	IQUANT	1	Control Mode
ELECTROMETER	IQUANT	0	RE=0 or CS=1
IESTAB	IQUANT	0	I/E Stability
CASPEED	IQUANT	3	Control Amp Speed
CONVENTION	IQUANT	1	Current Convention
ICHRANGE	IQUANT	2	Ich Range
ICHRANGEMODE	TOGGLE	F	Ich Auto Range
ICHOFFSETENABLE	TOGGLE	T	Ich Offset Enable
ICHOFFSET	QUANT	0	Ich Offset (V)
ICHFILTER	IQUANT	4	Ich Filter
VCHRANGE	IQUANT	2	Vch Range
VCHRANGEMODE	TOGGLE	F	Vch Auto Range
VCHOFFSETENABLE	TOGGLE	T	Vch Offset Enable
VCHOFFSET	QUANT	0	Vch Offset (V)
VCHFILTER	IQUANT	4	Vch Filter
IERANGELOWERLIMIT	IQUANT	4	I/E Range Lower Limit
IERANGEMODE	TOGGLE	F	I/E AutoRange
IERANGE	IQUANT	7	I/E Range
ACHSELECT	IQUANT	0	Ach Select
ACHRANGE	IQUANT	2	Ach Range
ACHOFFSETENABLE	TOGGLE	F	Ach Offset Enable
ACHOFFSET	QUANT	0	Ach Offset (V)
ACHFILTER	IQUANT	1	Ach Filter
SENSECABLEID	IQUANT	14	Sense Cable ID
PWRCABLEID	IQUANT	14	Power Cable ID
DCCALDATE	LABEL	11/25/2025	DC Calibration Date
ACCALDATE	LABEL	9/8/2018	AC Calibration Date
FRAMEWORKVERSION	QUANT	7.07	Framework Version
INSTRUMENTVERSION	LABEL	4.34	Instrument Version
ZCURVE	TABLE
	Pt	Time	Freq	Zreal	Zimag	Zsig	Zmod	Zphz	Idc	Vdc	IERange
	#	s	Hz	ohm	ohm	V	ohm	°	A	V	#
	0	7	1004.464	390.5228	-58.33117	1	394.8551	-8.495286	-4.877365E-005	-1.199829	9
	1	10	800.3049	388.0681	-69.06377	1	394.1658	-10.09117	-4.003445E-005	-1.199805	8
	2	12	631.0096	386.4102	-83.26803	1	395.2802	-12.16078	-3.463999E-005	-1.199812	8
	3	15	498.6702	385.6134	-100.7613	1	398.5606	-14.64403	-3.125019E-005	-1.199812	8
	4	17	397.2458	385.3223	-121.8839	1	404.1398	-17.55303	-2.89468E-005	-1.199815	8
	5	19	319.6023	386.3977	-146.7754	1	413.3355	-20.79956	-2.740937E-005	-1.199819	8
	6	22	251.1161	389.7303	-181.4101	1	429.883	-24.96084	-2.634135E-005	-1.199823	8
	7	24	200.8929	392.1771	-221.4615	1	450.3866	-29.45332	-2.558293E-005	-1.199825	8
	8	27	158.0056	396.6722	-275.4308	1	482.9192	-34.77432	-2.512215E-005	-1.199824	8
	9	29	125.558	402.3219	-340.0902	1	526.8057	-40.20846	-2.480081E-005	-1.199826	8
	10	32	99.734	412.8894	-420.6777	1	589.4467	-45.53532	-2.453622E-005	-1.199829	8
	11	34	79.44915	426.0648	-519.7505	1	672.0653	-50.65686	-2.439748E-005	-1.19981	8
	12	37	63.34459	444.7916	-641.9931	1	781.0215	-55.28465	-2.424741E-005	-1.199812	8
	13	39	49.86702	473.5599	-803.9905	1	933.0915	-59.50141	-2.419442E-005	-1.199812	8
	14	41	38.10976	520.3053	-1031.513	1	1155.308	-63.23317	-2.417028E-005	-1.199813	8
	15	44	31.25	569.8434	-1240.911	1	1365.497	-65.33477	-2.412252E-005	-1.199816	8
	16	46	24.93351	650.3218	-1529.617	1	1662.121	-66.96706	-2.406897E-005	-1.199817	8
	17	48	19.94681	767.6804	-1875.412	1	2026.451	-67.73877	-2.408051E-005	-1.199816	8
	18	51	15.57309	961.346	-2339.889	1	2529.677	-67.66463	-2.404647E-005	-1.199818	8
	19	53	12.40079	1223.011	-2847.943	1	3099.441	-66.75954	-2.402414E-005	-1.199818	8
	20	56	9.91015	1593.764	-3422.189	1	3775.111	-65.02792	-2.398941E-005	-1.199822	8
	21	59	7.971939	2098.392	-4032.229	1	4545.56	-62.50731	-2.393848E-005	-1.199823	8
	22	62	6.351626	2806.602	-4681.495	1	5458.334	-59.0569	-2.394789E-005	-1.199824	8
	23	66	4.970838	3804.348	-5340.85	1	6557.266	-54.5373	-2.394663E-005	-1.199827	8
	24	71	3.942389	4951.348	-5822.99	1	7643.498	-49.62514	-2.397088E-005	-1.199827	8
	25	77	3.16723	6153.303	-6094.526	1	8660.623	-44.72504	-2.399814E-005	-1.199829	8
	26	83	2.485419	7532.742	-6137.392	1	9716.47	-39.17184	-2.409382E-005	-1.19983	8
	27	91	1.971194	8745.753	-5937.131	1	10570.61	-34.17097	-2.41261E-005	-1.199833	8
	28	100	1.605308	9709.03	-5717.333	1	11267.35	-30.49246	-2.416307E-005	-1.199838	8
	29	111	1.260081	10736.74	-5378.713	1	12008.67	-26.60919	-2.413116E-005	-1.199841	8
	30	124	1.001603	11570.64	-5057.416	1	12627.64	-23.60967	-2.406632E-005	-1.199842	8
