EXPLAIN
TAG	EISPOT
TITLE	LABEL	Potentiostatic EIS	Test &Identifier
DATE	LABEL	4/22/2026	Date
TIME	LABEL	13:06:52	Time
NOTES	NOTES	1	&Notes...
	
PSTAT	PSTAT	Rhea	Potentiostat
VDC	POTEN	-1.60000E+000	F	DC &Voltage (V)
FREQINIT	QUANT	1.00000E+003	Initial Fre&q. (Hz)
FREQFINAL	QUANT	1.00000E+000	Final Fre&q. (Hz)
PTSPERDEC	QUANT	1.00000E+001	Points/&decade
VAC	QUANT	1.00000E+001	AC &Voltage (mV rms)
AREA	QUANT	2.80000E-001	&Area (cm^2)
CONDIT	TWOPARAM	F	0.00000E+000	0.00000E+000	Conditionin&g	Time(s)	E(V)
DELAY	TWOPARAM	T	1.00000E+001	0.00000E+000	Init. De&lay	Time(s)	Stab.(mV/s)
SPEED	SELECTOR	2	&Optimize for:
ZGUESS	QUANT	2.86800E+005	E&stimated Z (ohms)
OCVCURVE	TABLE	40
	Pt	T	Vf	Vm	Ach	Over	Temp
	#	s	V vs. Ref.	V	V	bits	deg C
	0	0.25	-9.35891E-002	-9.35891E-002	0.00000E+000	...........	1415.63
	1	0.5	-9.35882E-002	-9.35440E-002	0.00000E+000	...........	1415.37
	2	0.75	-9.35829E-002	-9.34977E-002	0.00000E+000	...........	1415.37
	3	1	-9.35677E-002	-9.34626E-002	0.00000E+000	...........	1415.37
	4	1.25	-9.35406E-002	-9.34205E-002	0.00000E+000	...........	1415.41
	5	1.5	-9.35049E-002	-9.33760E-002	0.00000E+000	...........	1415.46
	6	1.75	-9.34649E-002	-9.33366E-002	0.00000E+000	...........	1415.46
	7	2	-9.34233E-002	-9.33010E-002	0.00000E+000	...........	1415.46
	8	2.25	-9.33823E-002	-9.32747E-002	0.00000E+000	...........	1415.50
	9	2.5	-9.33436E-002	-9.32433E-002	0.00000E+000	...........	1415.55
	10	2.75	-9.33081E-002	-9.31993E-002	0.00000E+000	...........	1415.55
	11	3	-9.32742E-002	-9.31562E-002	0.00000E+000	...........	1415.55
	12	3.25	-9.32389E-002	-9.31125E-002	0.00000E+000	...........	1415.55
	13	3.5	-9.32005E-002	-9.30696E-002	0.00000E+000	...........	1415.55
	14	3.75	-9.31594E-002	-9.30320E-002	0.00000E+000	...........	1415.55
	15	4	-9.31174E-002	-9.30002E-002	0.00000E+000	...........	1415.55
	16	4.25	-9.30765E-002	-9.29605E-002	0.00000E+000	...........	1415.55
	17	4.5	-9.30374E-002	-9.29106E-002	0.00000E+000	...........	1415.55
	18	4.75	-9.29989E-002	-9.28760E-002	0.00000E+000	...........	1415.55
	19	5	-9.29594E-002	-9.28415E-002	0.00000E+000	...........	1415.55
	20	5.25	-9.29193E-002	-9.27877E-002	0.00000E+000	...........	1415.55
	21	5.5	-9.28789E-002	-9.27485E-002	0.00000E+000	...........	1415.55
	22	5.75	-9.28376E-002	-9.27107E-002	0.00000E+000	...........	1415.55
	23	6	-9.27955E-002	-9.26682E-002	0.00000E+000	...........	1415.55
	24	6.25	-9.27539E-002	-9.26367E-002	0.00000E+000	...........	1415.50
	25	6.5	-9.27138E-002	-9.26071E-002	0.00000E+000	...........	1415.46
	26	6.75	-9.26759E-002	-9.25626E-002	0.00000E+000	...........	1415.46
	27	7	-9.26397E-002	-9.25187E-002	0.00000E+000	...........	1415.46
	28	7.25	-9.26029E-002	-9.24766E-002	0.00000E+000	...........	1415.46
	29	7.5	-9.25641E-002	-9.24471E-002	0.00000E+000	...........	1415.46
	30	7.75	-9.25242E-002	-9.24051E-002	0.00000E+000	...........	1415.46
	31	8	-9.24849E-002	-9.23721E-002	0.00000E+000	...........	1415.46
	32	8.25	-9.24472E-002	-9.23462E-002	0.00000E+000	...........	1415.46
	33	8.5	-9.24116E-002	-9.23133E-002	0.00000E+000	...........	1415.46
	34	8.75	-9.23782E-002	-9.22824E-002	0.00000E+000	...........	1415.46
	35	9	-9.23463E-002	-9.22422E-002	0.00000E+000	...........	1415.46
	36	9.25	-9.23142E-002	-9.21941E-002	0.00000E+000	...........	1415.46
	37	9.5	-9.22794E-002	-9.21570E-002	0.00000E+000	...........	1415.46
	38	9.75	-9.22415E-002	-9.21225E-002	0.00000E+000	...........	1415.46
	39	10	-9.22020E-002	-9.20881E-002	0.00000E+000	...........	1415.46
EOC	QUANT	-0.092202	Open Circuit (V)
PSTATMODEL	IQUANT	64	Pstat Model
PSTATSECTION	LABEL	IFC1010-22099	Pstat Section
PSTATSERIALNO	LABEL	22099	Pstat Serial Number
CTRLMODE	IQUANT	1	Control Mode
ELECTROMETER	IQUANT	0	RE=0 or CS=1
IESTAB	IQUANT	0	I/E Stability
CASPEED	IQUANT	3	Control Amp Speed
CONVENTION	IQUANT	1	Current Convention
ICHRANGE	IQUANT	2	Ich Range
ICHRANGEMODE	TOGGLE	F	Ich Auto Range
ICHOFFSETENABLE	TOGGLE	T	Ich Offset Enable
ICHOFFSET	QUANT	0	Ich Offset (V)
ICHFILTER	IQUANT	4	Ich Filter
VCHRANGE	IQUANT	2	Vch Range
VCHRANGEMODE	TOGGLE	F	Vch Auto Range
VCHOFFSETENABLE	TOGGLE	T	Vch Offset Enable
VCHOFFSET	QUANT	0	Vch Offset (V)
VCHFILTER	IQUANT	4	Vch Filter
IERANGELOWERLIMIT	IQUANT	4	I/E Range Lower Limit
IERANGEMODE	TOGGLE	F	I/E AutoRange
IERANGE	IQUANT	7	I/E Range
ACHSELECT	IQUANT	0	Ach Select
ACHRANGE	IQUANT	2	Ach Range
ACHOFFSETENABLE	TOGGLE	F	Ach Offset Enable
ACHOFFSET	QUANT	0	Ach Offset (V)
ACHFILTER	IQUANT	1	Ach Filter
SENSECABLEID	IQUANT	14	Sense Cable ID
PWRCABLEID	IQUANT	14	Power Cable ID
DCCALDATE	LABEL	11/25/2025	DC Calibration Date
ACCALDATE	LABEL	9/8/2018	AC Calibration Date
FRAMEWORKVERSION	QUANT	7.07	Framework Version
INSTRUMENTVERSION	LABEL	4.34	Instrument Version
ZCURVE	TABLE
	Pt	Time	Freq	Zreal	Zimag	Zsig	Zmod	Zphz	Idc	Vdc	IERange
	#	s	Hz	ohm	ohm	V	ohm	°	A	V	#
	0	9	1004.464	272.2313	-42.9906	1	275.6049	-8.974003	-0.0000978	-1.600041	9
	1	12	800.3049	274.4475	-49.64534	1	278.9016	-10.25347	-0.0000951	-1.600041	9
	2	14	631.0096	277.1568	-57.94567	1	283.1494	-11.80884	-9.394789E-005	-1.60004	9
	3	16	498.6702	280.2386	-67.87532	1	288.3414	-13.61515	-9.354197E-005	-1.600038	9
	4	19	397.2458	283.9544	-79.58727	1	294.897	-15.65722	-9.360567E-005	-1.600038	9
	5	21	319.6023	287.9924	-93.16653	1	302.6874	-17.92657	-9.370374E-005	-1.60004	9
	6	24	251.1161	293.9064	-111.6848	1	314.4113	-20.80685	-9.430092E-005	-1.600041	9
	7	26	200.8929	300.998	-132.6785	1	328.9428	-23.78766	-9.464881E-005	-1.600036	9
	8	28	158.0056	311.3688	-160.1709	1	350.1504	-27.2217	-0.0000953	-1.600038	9
	9	31	125.558	324.9143	-191.8248	1	377.3143	-30.557	-0.0000959	-1.60004	9
	10	33	99.734	344.397	-229.2536	1	413.7228	-33.65038	-0.0000966	-1.600041	9
	11	36	79.44915	370.5035	-271.5675	1	459.371	-36.24025	-0.0000975	-1.600031	9
	12	38	63.34459	406.0126	-318.2216	1	515.8597	-38.08838	-0.0000983	-1.600031	9
	13	41	49.86702	456.8625	-370.3896	1	588.1426	-39.03253	-0.0000991	-1.60003	9
	14	43	38.10976	533.2541	-428.6049	1	684.1506	-38.79071	-0.0000999	-1.60003	9
	15	46	31.25	602.5298	-465.1819	1	761.2072	-37.66986	-0.0001009	-1.600031	9
	16	48	24.93351	693.3849	-495.8398	1	852.4316	-35.56858	-0.0001019	-1.600029	9
	17	51	19.94681	790.8205	-509.7443	1	940.87	-32.80487	-0.0001028	-1.600029	9
	18	53	15.57309	899.9478	-502.6758	1	1030.82	-29.18603	-0.0001041	-1.60003	9
	19	56	12.40079	992.927	-477.3117	1	1101.694	-25.67414	-0.0001051	-1.600029	9
	20	60	9.91015	1070.083	-437.5093	1	1156.068	-22.23746	-0.0001064	-1.600029	9
	21	63	7.971939	1128.405	-389.0237	1	1193.582	-19.02191	-0.0001077	-1.600028	9
	22	67	6.351626	1171.981	-337.4196	1	1219.586	-16.0614	-0.0001093	-1.600026	9
	23	71	4.970838	1205.163	-285.8347	1	1238.596	-13.3426	-0.0001106	-1.600026	9
	24	76	3.942389	1215.262	-238.7977	1	1238.501	-11.11692	-0.0001125	-1.600028	9
	25	82	3.16723	1215.07	-199.0321	1	1231.263	-9.302608	-0.0001146	-1.600027	9
	26	88	2.485419	1206.442	-165.7572	1	1217.775	-7.823084	-0.0001172	-1.600029	9
	27	96	1.971194	1189.953	-136.0996	1	1197.711	-6.524791	-0.0001203	-1.600027	9
	28	105	1.605308	1161.931	-113.4519	1	1167.456	-5.576729	-0.0001236	-1.600028	9
	29	116	1.260081	1135.606	-96.455	1	1139.695	-4.854882	-0.0001276	-1.600027	9
	30	129	1.001603	1112.67	-82.2428	1	1115.705	-4.227321	-0.000131	-1.600027	9
