EXPLAIN
TAG	EISPOT
TITLE	LABEL	Potentiostatic EIS	Test &Identifier
DATE	LABEL	4/22/2026	Date
TIME	LABEL	13:42:33	Time
NOTES	NOTES	1	&Notes...
	
PSTAT	PSTAT	Rhea	Potentiostat
VDC	POTEN	-1.60000E+000	F	DC &Voltage (V)
FREQINIT	QUANT	1.00000E+003	Initial Fre&q. (Hz)
FREQFINAL	QUANT	1.00000E+000	Final Fre&q. (Hz)
PTSPERDEC	QUANT	1.00000E+001	Points/&decade
VAC	QUANT	1.00000E+001	AC &Voltage (mV rms)
AREA	QUANT	2.80000E-001	&Area (cm^2)
CONDIT	TWOPARAM	F	0.00000E+000	0.00000E+000	Conditionin&g	Time(s)	E(V)
DELAY	TWOPARAM	T	1.00000E+001	0.00000E+000	Init. De&lay	Time(s)	Stab.(mV/s)
SPEED	SELECTOR	2	&Optimize for:
ZGUESS	QUANT	2.86800E+005	E&stimated Z (ohms)
OCVCURVE	TABLE	40
	Pt	T	Vf	Vm	Ach	Over	Temp
	#	s	V vs. Ref.	V	V	bits	deg C
	0	0.25	-3.17207E-001	-3.17207E-001	0.00000E+000	...........	1415.19
	1	0.5	-3.17172E-001	-3.15330E-001	0.00000E+000	...........	1415.19
	2	0.75	-3.16950E-001	-3.13489E-001	0.00000E+000	...........	1415.19
	3	1	-3.16319E-001	-3.11694E-001	0.00000E+000	...........	1415.19
	4	1.25	-3.15179E-001	-3.09904E-001	0.00000E+000	...........	1415.63
	5	1.5	-3.13642E-001	-3.08176E-001	0.00000E+000	...........	1415.63
	6	1.75	-3.11904E-001	-3.06466E-001	0.00000E+000	...........	1415.63
	7	2	-3.10117E-001	-3.04818E-001	0.00000E+000	...........	1415.63
	8	2.25	-3.08355E-001	-3.03189E-001	0.00000E+000	...........	1415.63
	9	2.5	-3.06639E-001	-3.01596E-001	0.00000E+000	...........	1415.63
	10	2.75	-3.04969E-001	-3.00030E-001	0.00000E+000	...........	1415.63
	11	3	-3.03338E-001	-2.98499E-001	0.00000E+000	...........	1415.63
	12	3.25	-3.01741E-001	-2.97003E-001	0.00000E+000	...........	1415.63
	13	3.5	-3.00176E-001	-2.95533E-001	0.00000E+000	...........	1415.63
	14	3.75	-2.98642E-001	-2.94057E-001	0.00000E+000	...........	1415.63
	15	4	-2.97136E-001	-2.92630E-001	0.00000E+000	...........	1415.63
	16	4.25	-2.95654E-001	-2.91214E-001	0.00000E+000	...........	1415.63
	17	4.5	-2.94195E-001	-2.89853E-001	0.00000E+000	...........	1415.63
	18	4.75	-2.92761E-001	-2.88512E-001	0.00000E+000	...........	1415.63
	19	5	-2.91355E-001	-2.87173E-001	0.00000E+000	...........	1415.63
	20	5.25	-2.89978E-001	-2.85885E-001	0.00000E+000	...........	1415.63
	21	5.5	-2.88627E-001	-2.84599E-001	0.00000E+000	...........	1415.63
	22	5.75	-2.87301E-001	-2.83342E-001	0.00000E+000	...........	1415.63
	23	6	-2.85997E-001	-2.82108E-001	0.00000E+000	...........	1415.63
	24	6.25	-2.84716E-001	-2.80870E-001	0.00000E+000	...........	1415.63
	25	6.5	-2.83454E-001	-2.79676E-001	0.00000E+000	...........	1415.63
	26	6.75	-2.82211E-001	-2.78492E-001	0.00000E+000	...........	1415.63
	27	7	-2.80987E-001	-2.77343E-001	0.00000E+000	...........	1415.63
	28	7.25	-2.79785E-001	-2.76217E-001	0.00000E+000	...........	1415.63
	29	7.5	-2.78605E-001	-2.75101E-001	0.00000E+000	...........	1415.63
	30	7.75	-2.77449E-001	-2.74006E-001	0.00000E+000	...........	1415.63
	31	8	-2.76315E-001	-2.72935E-001	0.00000E+000	...........	1415.63
	32	8.25	-2.75201E-001	-2.71877E-001	0.00000E+000	...........	1415.63
	33	8.5	-2.74107E-001	-2.70841E-001	0.00000E+000	...........	1415.63
	34	8.75	-2.73031E-001	-2.69822E-001	0.00000E+000	...........	1415.63
	35	9	-2.71973E-001	-2.68798E-001	0.00000E+000	...........	1415.63
	36	9.25	-2.70932E-001	-2.67815E-001	0.00000E+000	...........	1415.63
	37	9.5	-2.69907E-001	-2.66850E-001	0.00000E+000	...........	1415.63
	38	9.75	-2.68898E-001	-2.65895E-001	0.00000E+000	...........	1415.63
	39	10	-2.67908E-001	-2.64957E-001	0.00000E+000	...........	1415.63
EOC	QUANT	-0.2679077	Open Circuit (V)
PSTATMODEL	IQUANT	64	Pstat Model
PSTATSECTION	LABEL	IFC1010-22099	Pstat Section
PSTATSERIALNO	LABEL	22099	Pstat Serial Number
CTRLMODE	IQUANT	1	Control Mode
ELECTROMETER	IQUANT	0	RE=0 or CS=1
IESTAB	IQUANT	0	I/E Stability
CASPEED	IQUANT	3	Control Amp Speed
CONVENTION	IQUANT	1	Current Convention
ICHRANGE	IQUANT	2	Ich Range
ICHRANGEMODE	TOGGLE	F	Ich Auto Range
ICHOFFSETENABLE	TOGGLE	T	Ich Offset Enable
ICHOFFSET	QUANT	0	Ich Offset (V)
ICHFILTER	IQUANT	4	Ich Filter
VCHRANGE	IQUANT	2	Vch Range
VCHRANGEMODE	TOGGLE	F	Vch Auto Range
VCHOFFSETENABLE	TOGGLE	T	Vch Offset Enable
VCHOFFSET	QUANT	0	Vch Offset (V)
VCHFILTER	IQUANT	4	Vch Filter
IERANGELOWERLIMIT	IQUANT	4	I/E Range Lower Limit
IERANGEMODE	TOGGLE	F	I/E AutoRange
IERANGE	IQUANT	7	I/E Range
ACHSELECT	IQUANT	0	Ach Select
ACHRANGE	IQUANT	2	Ach Range
ACHOFFSETENABLE	TOGGLE	F	Ach Offset Enable
ACHOFFSET	QUANT	0	Ach Offset (V)
ACHFILTER	IQUANT	1	Ach Filter
SENSECABLEID	IQUANT	14	Sense Cable ID
PWRCABLEID	IQUANT	14	Power Cable ID
DCCALDATE	LABEL	11/25/2025	DC Calibration Date
ACCALDATE	LABEL	9/8/2018	AC Calibration Date
FRAMEWORKVERSION	QUANT	7.07	Framework Version
INSTRUMENTVERSION	LABEL	4.34	Instrument Version
ZCURVE	TABLE
	Pt	Time	Freq	Zreal	Zimag	Zsig	Zmod	Zphz	Idc	Vdc	IERange
	#	s	Hz	ohm	ohm	V	ohm	°	A	V	#
	0	7	1004.464	261.8728	-31.68247	1	263.7824	-6.898356	-7.989663E-005	-1.600049	9
	1	10	800.3049	263.7309	-37.68039	1	266.4091	-8.131072	-7.828624E-005	-1.600049	9
	2	12	631.0096	265.9146	-45.38607	1	269.76	-9.68586	-7.819972E-005	-1.600049	9
	3	14	498.6702	268.4651	-54.64692	1	273.9704	-11.50555	-7.872528E-005	-1.600048	9
	4	17	397.2458	271.394	-65.63326	1	279.2175	-13.59524	-7.942297E-005	-1.600044	9
	5	19	319.6023	274.7852	-78.48619	1	285.7744	-15.9408	-8.036261E-005	-1.600049	9
	6	22	251.1161	279.5609	-95.9355	1	295.5637	-18.94042	-8.14106E-005	-1.600042	9
	7	24	200.8929	285.3347	-115.693	1	307.8973	-22.07079	-8.249744E-005	-1.600044	9
	8	26	158.0056	293.8315	-141.6835	1	326.2072	-25.74304	-8.364554E-005	-1.600048	9
	9	29	125.558	305.2233	-171.7858	1	350.2451	-29.37168	-8.473026E-005	-1.600047	9
	10	31	99.734	321.2694	-207.7231	1	382.574	-32.88549	-8.572863E-005	-1.600049	9
	11	34	79.44915	343.3731	-249.2793	1	424.3174	-35.9786	-8.682941E-005	-1.600036	9
	12	36	63.34459	373.9795	-296.222	1	477.0829	-38.38207	-8.772248E-005	-1.600037	9
	13	38	49.86702	418.4543	-349.9609	1	545.5059	-39.90635	-8.86665E-005	-1.600038	9
	14	41	38.10976	487.1687	-414.0474	1	639.3502	-40.3614	-8.938852E-005	-1.60004	9
	15	43	31.25	551.4512	-457.6012	1	716.5872	-39.68632	-9.009263E-005	-1.600037	9
	16	46	24.93351	638.7534	-499.5898	1	810.9229	-38.03011	-9.083078E-005	-1.600034	9
	17	48	19.94681	736.7159	-527.3785	1	906.0234	-35.597	-9.153556E-005	-1.600035	9
	18	51	15.57309	852.3912	-538.1381	1	1008.049	-32.26535	-9.22656E-005	-1.600037	9
	19	54	12.40079	956.823	-527.7371	1	1092.71	-28.87901	-9.306183E-005	-1.600037	9
	20	57	9.91015	1051.075	-500.6667	1	1164.228	-25.47022	-9.389062E-005	-1.600037	9
	21	61	7.971939	1128.837	-460.9781	1	1219.333	-22.21341	-9.488342E-005	-1.600036	9
	22	64	6.351626	1195.738	-414.5654	1	1265.565	-19.12156	-0.0000957	-1.600036	9
	23	69	4.970838	1250.482	-361.6379	1	1301.725	-16.1298	-0.0000968	-1.600035	9
	24	74	3.942389	1287.288	-312.8271	1	1324.754	-13.65882	-0.0000979	-1.600034	9
	25	79	3.16723	1309.748	-270.1568	1	1337.32	-11.65473	-0.000099	-1.600036	9
	26	86	2.485419	1327.456	-231.391	1	1347.472	-9.88797	-0.0001001	-1.600035	9
	27	94	1.971194	1335.097	-198.085	1	1349.711	-8.439269	-0.0001013	-1.60003	9
	28	103	1.605308	1334.341	-172.6613	1	1345.466	-7.373003	-0.0001025	-1.600033	9
	29	114	1.260081	1330.811	-147.9427	1	1339.009	-6.343376	-0.0001038	-1.600033	9
	30	127	1.001603	1324.569	-127.6543	1	1330.706	-5.504834	-0.0001051	-1.600035	9
