EXPLAIN
TAG	EISPOT
TITLE	LABEL	Potentiostatic EIS	Test &Identifier
DATE	LABEL	4/22/2026	Date
TIME	LABEL	13:00:21	Time
NOTES	NOTES	1	&Notes...
	
PSTAT	PSTAT	Rhea	Potentiostat
VDC	POTEN	-1.20000E+000	F	DC &Voltage (V)
FREQINIT	QUANT	1.00000E+003	Initial Fre&q. (Hz)
FREQFINAL	QUANT	1.00000E+000	Final Fre&q. (Hz)
PTSPERDEC	QUANT	1.00000E+001	Points/&decade
VAC	QUANT	1.00000E+001	AC &Voltage (mV rms)
AREA	QUANT	2.80000E-001	&Area (cm^2)
CONDIT	TWOPARAM	F	0.00000E+000	0.00000E+000	Conditionin&g	Time(s)	E(V)
DELAY	TWOPARAM	T	1.00000E+001	0.00000E+000	Init. De&lay	Time(s)	Stab.(mV/s)
SPEED	SELECTOR	2	&Optimize for:
ZGUESS	QUANT	2.86800E+005	E&stimated Z (ohms)
OCVCURVE	TABLE	40
	Pt	T	Vf	Vm	Ach	Over	Temp
	#	s	V vs. Ref.	V	V	bits	deg C
	0	0.25	9.68818E-002	9.68818E-002	0.00000E+000	...........	1415.46
	1	0.5	9.68823E-002	9.69075E-002	0.00000E+000	...........	1415.46
	2	0.75	9.68857E-002	9.69516E-002	0.00000E+000	...........	1415.46
	3	1	9.68967E-002	9.70006E-002	0.00000E+000	...........	1415.46
	4	1.25	9.69194E-002	9.70511E-002	0.00000E+000	...........	1415.72
	5	1.5	9.69541E-002	9.71016E-002	0.00000E+000	...........	1415.72
	6	1.75	9.69980E-002	9.71591E-002	0.00000E+000	...........	1415.72
	7	2	9.70474E-002	9.72177E-002	0.00000E+000	...........	1415.72
	8	2.25	9.71004E-002	9.72786E-002	0.00000E+000	...........	1415.72
	9	2.5	9.71561E-002	9.73278E-002	0.00000E+000	...........	1415.72
	10	2.75	9.72128E-002	9.73797E-002	0.00000E+000	...........	1415.72
	11	3	9.72681E-002	9.73930E-002	0.00000E+000	...........	1415.72
	12	3.25	9.73184E-002	9.74378E-002	0.00000E+000	...........	1415.81
	13	3.5	9.73618E-002	9.74823E-002	0.00000E+000	...........	1415.81
	14	3.75	9.74009E-002	9.75399E-002	0.00000E+000	...........	1415.81
	15	4	9.74412E-002	9.76026E-002	0.00000E+000	...........	1415.81
	16	4.25	9.74871E-002	9.76582E-002	0.00000E+000	...........	1415.72
	17	4.5	9.75393E-002	9.77252E-002	0.00000E+000	...........	1415.72
	18	4.75	9.75966E-002	9.77907E-002	0.00000E+000	...........	1415.72
	19	5	9.76574E-002	9.78536E-002	0.00000E+000	...........	1415.72
	20	5.25	9.77204E-002	9.79213E-002	0.00000E+000	...........	1415.72
	21	5.5	9.77848E-002	9.79852E-002	0.00000E+000	...........	1415.72
	22	5.75	9.78498E-002	9.80499E-002	0.00000E+000	...........	1415.72
	23	6	9.79150E-002	9.81145E-002	0.00000E+000	...........	1415.72
	24	6.25	9.79803E-002	9.81924E-002	0.00000E+000	...........	1415.72
	25	6.5	9.80467E-002	9.82697E-002	0.00000E+000	...........	1415.72
	26	6.75	9.81157E-002	9.83445E-002	0.00000E+000	...........	1415.72
	27	7	9.81888E-002	9.84610E-002	0.00000E+000	...........	1415.72
	28	7.25	9.82672E-002	9.85198E-002	0.00000E+000	...........	1415.72
	29	7.5	9.83501E-002	9.85909E-002	0.00000E+000	...........	1415.72
	30	7.75	9.84325E-002	9.86333E-002	0.00000E+000	...........	1415.72
	31	8	9.85079E-002	9.86866E-002	0.00000E+000	...........	1415.72
	32	8.25	9.85738E-002	9.87495E-002	0.00000E+000	...........	1415.72
	33	8.5	9.86327E-002	9.88263E-002	0.00000E+000	...........	1415.72
	34	8.75	9.86909E-002	9.88980E-002	0.00000E+000	...........	1415.72
	35	9	9.87534E-002	9.89776E-002	0.00000E+000	...........	1415.72
	36	9.25	9.88218E-002	9.90582E-002	0.00000E+000	...........	1415.72
	37	9.5	9.88953E-002	9.91322E-002	0.00000E+000	...........	1415.72
	38	9.75	9.89715E-002	9.91973E-002	0.00000E+000	...........	1415.72
	39	10	9.90477E-002	9.92711E-002	0.00000E+000	...........	1415.72
EOC	QUANT	0.0990477	Open Circuit (V)
PSTATMODEL	IQUANT	64	Pstat Model
PSTATSECTION	LABEL	IFC1010-22099	Pstat Section
PSTATSERIALNO	LABEL	22099	Pstat Serial Number
CTRLMODE	IQUANT	1	Control Mode
ELECTROMETER	IQUANT	0	RE=0 or CS=1
IESTAB	IQUANT	0	I/E Stability
CASPEED	IQUANT	3	Control Amp Speed
CONVENTION	IQUANT	1	Current Convention
ICHRANGE	IQUANT	2	Ich Range
ICHRANGEMODE	TOGGLE	F	Ich Auto Range
ICHOFFSETENABLE	TOGGLE	T	Ich Offset Enable
ICHOFFSET	QUANT	0	Ich Offset (V)
ICHFILTER	IQUANT	4	Ich Filter
VCHRANGE	IQUANT	2	Vch Range
VCHRANGEMODE	TOGGLE	F	Vch Auto Range
VCHOFFSETENABLE	TOGGLE	T	Vch Offset Enable
VCHOFFSET	QUANT	0	Vch Offset (V)
VCHFILTER	IQUANT	4	Vch Filter
IERANGELOWERLIMIT	IQUANT	4	I/E Range Lower Limit
IERANGEMODE	TOGGLE	F	I/E AutoRange
IERANGE	IQUANT	7	I/E Range
ACHSELECT	IQUANT	0	Ach Select
ACHRANGE	IQUANT	2	Ach Range
ACHOFFSETENABLE	TOGGLE	F	Ach Offset Enable
ACHOFFSET	QUANT	0	Ach Offset (V)
ACHFILTER	IQUANT	1	Ach Filter
SENSECABLEID	IQUANT	14	Sense Cable ID
PWRCABLEID	IQUANT	14	Power Cable ID
DCCALDATE	LABEL	11/25/2025	DC Calibration Date
ACCALDATE	LABEL	9/8/2018	AC Calibration Date
FRAMEWORKVERSION	QUANT	7.07	Framework Version
INSTRUMENTVERSION	LABEL	4.34	Instrument Version
ZCURVE	TABLE
	Pt	Time	Freq	Zreal	Zimag	Zsig	Zmod	Zphz	Idc	Vdc	IERange
	#	s	Hz	ohm	ohm	V	ohm	°	A	V	#
	0	6	1004.464	353.6084	-65.42396	1	359.6097	-10.48222	-3.536645E-005	-1.199991	8
	1	8	800.3049	353.6553	-74.7672	1	361.4723	-11.93728	-3.275667E-005	-1.199989	8
	2	11	631.0096	355.1572	-87.51718	1	365.7812	-13.84293	-3.148019E-005	-1.199993	8
	3	13	498.6702	362.8332	-103.5068	1	377.3084	-15.92206	-3.1123E-005	-1.199995	8
	4	16	397.2458	362.3765	-123.1103	1	382.7177	-18.76418	-3.084295E-005	-1.19999	8
	5	18	319.6023	359.9207	-146.6536	1	388.6517	-22.16898	-3.064673E-005	-1.19999	8
	6	21	251.1161	362.8594	-179.7928	1	404.9598	-26.3579	-3.064972E-005	-1.19999	8
	7	23	200.8929	368.0053	-218.6534	1	428.0622	-30.71701	-3.065314E-005	-1.199992	8
	8	25	158.0056	377.5579	-271.3651	1	464.9613	-35.70622	-3.074423E-005	-1.199991	8
	9	28	125.558	382.1091	-334.7274	1	507.986	-41.21835	-3.085128E-005	-1.199987	8
	10	30	99.734	394.4555	-413.945	1	571.7916	-46.38106	-3.083534E-005	-1.199991	8
	11	33	79.44915	409.8112	-510.9148	1	654.965	-51.26646	-3.091221E-005	-1.199983	8
	12	35	63.34459	435.8365	-629.601	1	765.7355	-55.30738	-3.093859E-005	-1.19998	8
	13	38	49.86702	476.2076	-783.4308	1	916.8083	-58.70671	-3.09897E-005	-1.199981	8
	14	40	38.10976	541.0741	-1001.529	1	1138.342	-61.61996	-3.095044E-005	-1.19998	8
	15	43	31.25	607.189	-1193.33	1	1338.923	-63.03214	-3.108365E-005	-1.19998	8
	16	45	24.93351	723.3087	-1453.717	1	1623.721	-63.54699	-3.10782E-005	-1.199979	8
	17	47	19.94681	881.5071	-1754.63	1	1963.614	-63.32554	-3.106791E-005	-1.19998	8
	18	50	15.57309	1134.612	-2136.199	1	2418.82	-62.02563	-3.118058E-005	-1.19998	8
	19	52	12.40079	1467.846	-2526.007	1	2921.521	-59.83942	-3.113896E-005	-1.199979	8
	20	56	9.91015	1908.531	-2912.288	1	3481.941	-56.76168	-3.121068E-005	-1.199978	8
	21	59	7.971939	2457.415	-3242.042	1	4068.135	-52.83846	-3.13223E-005	-1.199977	8
	22	63	6.351626	3154.182	-3503.034	1	4713.821	-47.99967	-3.141111E-005	-1.19998	8
	23	67	4.970838	3978.758	-3619.419	1	5378.727	-42.29234	-3.147266E-005	-1.199978	8
	24	72	3.942389	4757.3	-3568.646	1	5947.028	-36.87507	-3.153535E-005	-1.199979	8
	25	78	3.16723	5395.493	-3348.883	1	6350.304	-31.82712	-3.180077E-005	-1.199978	8
	26	84	2.485419	5978.336	-3063.078	1	6717.362	-27.12893	-3.200321E-005	-1.199978	8
	27	92	1.971194	6432.065	-2764.614	1	7001.039	-23.25888	-3.215444E-005	-1.199981	8
	28	101	1.605308	6723.846	-2557.642	1	7193.861	-20.826	-3.232565E-005	-1.19998	8
	29	112	1.260081	7003.529	-2362.245	1	7391.185	-18.63892	-3.252364E-005	-1.199978	8
	30	125	1.001603	7215.009	-2239.867	1	7554.691	-17.24672	-3.273554E-005	-1.199976	8
