EXPLAIN
TAG	EISPOT
TITLE	LABEL	Potentiostatic EIS	Test &Identifier
DATE	LABEL	4/22/2026	Date
TIME	LABEL	13:12:02	Time
NOTES	NOTES	1	&Notes...
	
PSTAT	PSTAT	Rhea	Potentiostat
VDC	POTEN	-1.20000E+000	F	DC &Voltage (V)
FREQINIT	QUANT	1.00000E+003	Initial Fre&q. (Hz)
FREQFINAL	QUANT	1.00000E+000	Final Fre&q. (Hz)
PTSPERDEC	QUANT	1.00000E+001	Points/&decade
VAC	QUANT	1.00000E+001	AC &Voltage (mV rms)
AREA	QUANT	2.80000E-001	&Area (cm^2)
CONDIT	TWOPARAM	F	0.00000E+000	0.00000E+000	Conditionin&g	Time(s)	E(V)
DELAY	TWOPARAM	T	1.00000E+001	0.00000E+000	Init. De&lay	Time(s)	Stab.(mV/s)
SPEED	SELECTOR	2	&Optimize for:
ZGUESS	QUANT	2.86800E+005	E&stimated Z (ohms)
OCVCURVE	TABLE	40
	Pt	T	Vf	Vm	Ach	Over	Temp
	#	s	V vs. Ref.	V	V	bits	deg C
	0	0.25	3.27647E-002	3.27647E-002	0.00000E+000	...........	1415.99
	1	0.5	3.28043E-002	3.48404E-002	0.00000E+000	...........	1415.63
	2	0.75	3.30473E-002	3.67813E-002	0.00000E+000	...........	1415.63
	3	1	3.37327E-002	3.86282E-002	0.00000E+000	...........	1415.63
	4	1.25	3.49541E-002	4.03821E-002	0.00000E+000	...........	1415.63
	5	1.5	3.65693E-002	4.19951E-002	0.00000E+000	...........	1415.72
	6	1.75	3.83449E-002	4.35011E-002	0.00000E+000	...........	1415.72
	7	2	4.01041E-002	4.48961E-002	0.00000E+000	...........	1415.72
	8	2.25	4.17621E-002	4.61954E-002	0.00000E+000	...........	1415.72
	9	2.5	4.32970E-002	4.73959E-002	0.00000E+000	...........	1415.72
	10	2.75	4.47141E-002	4.85136E-002	0.00000E+000	...........	1415.72
	11	3	4.60251E-002	4.95515E-002	0.00000E+000	...........	1415.72
	12	3.25	4.72401E-002	5.04920E-002	0.00000E+000	...........	1415.72
	13	3.5	4.83653E-002	5.13508E-002	0.00000E+000	...........	1415.72
	14	3.75	4.94039E-002	5.21584E-002	0.00000E+000	...........	1415.72
	15	4	5.03598E-002	5.28999E-002	0.00000E+000	...........	1415.72
	16	4.25	5.12395E-002	5.35801E-002	0.00000E+000	...........	1415.72
	17	4.5	5.20506E-002	5.42144E-002	0.00000E+000	...........	1415.72
	18	4.75	5.27991E-002	5.47921E-002	0.00000E+000	...........	1415.72
	19	5	5.34897E-002	5.53188E-002	0.00000E+000	...........	1415.72
	20	5.25	5.41257E-002	5.58021E-002	0.00000E+000	...........	1415.72
	21	5.5	5.47094E-002	5.62250E-002	0.00000E+000	...........	1415.63
	22	5.75	5.52422E-002	5.66105E-002	0.00000E+000	...........	1415.63
	23	6	5.57252E-002	5.69563E-002	0.00000E+000	...........	1415.63
	24	6.25	5.61607E-002	5.72711E-002	0.00000E+000	...........	1415.63
	25	6.5	5.65532E-002	5.75809E-002	0.00000E+000	...........	1415.63
	26	6.75	5.69092E-002	5.78489E-002	0.00000E+000	...........	1415.63
	27	7	5.72351E-002	5.80865E-002	0.00000E+000	...........	1415.63
	28	7.25	5.75338E-002	5.83066E-002	0.00000E+000	...........	1415.63
	29	7.5	5.78055E-002	5.84888E-002	0.00000E+000	...........	1415.63
	30	7.75	5.80487E-002	5.85985E-002	0.00000E+000	...........	1415.63
	31	8	5.82598E-002	5.87110E-002	0.00000E+000	...........	1415.63
	32	8.25	5.84353E-002	5.88060E-002	0.00000E+000	...........	1415.63
	33	8.5	5.85776E-002	5.88972E-002	0.00000E+000	...........	1415.63
	34	8.75	5.86947E-002	5.89784E-002	0.00000E+000	...........	1415.63
	35	9	5.87952E-002	5.90440E-002	0.00000E+000	...........	1415.63
	36	9.25	5.88841E-002	5.91010E-002	0.00000E+000	...........	1415.63
	37	9.5	5.89630E-002	5.91623E-002	0.00000E+000	...........	1415.63
	38	9.75	5.90328E-002	5.91992E-002	0.00000E+000	...........	1415.63
	39	10	5.90938E-002	5.92187E-002	0.00000E+000	...........	1415.63
EOC	QUANT	0.0590938	Open Circuit (V)
PSTATMODEL	IQUANT	64	Pstat Model
PSTATSECTION	LABEL	IFC1010-22099	Pstat Section
PSTATSERIALNO	LABEL	22099	Pstat Serial Number
CTRLMODE	IQUANT	1	Control Mode
ELECTROMETER	IQUANT	0	RE=0 or CS=1
IESTAB	IQUANT	0	I/E Stability
CASPEED	IQUANT	3	Control Amp Speed
CONVENTION	IQUANT	1	Current Convention
ICHRANGE	IQUANT	2	Ich Range
ICHRANGEMODE	TOGGLE	F	Ich Auto Range
ICHOFFSETENABLE	TOGGLE	T	Ich Offset Enable
ICHOFFSET	QUANT	0	Ich Offset (V)
ICHFILTER	IQUANT	4	Ich Filter
VCHRANGE	IQUANT	2	Vch Range
VCHRANGEMODE	TOGGLE	F	Vch Auto Range
VCHOFFSETENABLE	TOGGLE	T	Vch Offset Enable
VCHOFFSET	QUANT	0	Vch Offset (V)
VCHFILTER	IQUANT	4	Vch Filter
IERANGELOWERLIMIT	IQUANT	4	I/E Range Lower Limit
IERANGEMODE	TOGGLE	F	I/E AutoRange
IERANGE	IQUANT	7	I/E Range
ACHSELECT	IQUANT	0	Ach Select
ACHRANGE	IQUANT	2	Ach Range
ACHOFFSETENABLE	TOGGLE	F	Ach Offset Enable
ACHOFFSET	QUANT	0	Ach Offset (V)
ACHFILTER	IQUANT	1	Ach Filter
SENSECABLEID	IQUANT	14	Sense Cable ID
PWRCABLEID	IQUANT	14	Power Cable ID
DCCALDATE	LABEL	11/25/2025	DC Calibration Date
ACCALDATE	LABEL	9/8/2018	AC Calibration Date
FRAMEWORKVERSION	QUANT	7.07	Framework Version
INSTRUMENTVERSION	LABEL	4.34	Instrument Version
ZCURVE	TABLE
	Pt	Time	Freq	Zreal	Zimag	Zsig	Zmod	Zphz	Idc	Vdc	IERange
	#	s	Hz	ohm	ohm	V	ohm	°	A	V	#
	0	7	1004.464	344.0651	-58.21906	1	348.9559	-9.60402	-3.667775E-005	-1.199988	8
	1	9	800.3049	344.6204	-68.1024	1	351.285	-11.17852	-3.419915E-005	-1.19999	8
	2	11	631.0096	346.1085	-81.0576	1	355.4735	-13.18095	-3.314565E-005	-1.199994	8
	3	14	498.6702	347.9329	-97.0612	1	361.2177	-15.58727	-3.279007E-005	-1.199992	8
	4	16	397.2458	349.8602	-116.4232	1	368.7228	-18.40592	-3.26215E-005	-1.199989	8
	5	19	319.6023	352.5648	-139.5862	1	379.1916	-21.59942	-3.254962E-005	-1.199991	8
	6	21	251.1161	356.1839	-171.8835	1	395.4882	-25.76053	-3.263664E-005	-1.199991	8
	7	24	200.8929	360.7307	-209.5289	1	417.1678	-30.14998	-3.267067E-005	-1.199986	8
	8	26	158.0056	367.3281	-260.2795	1	450.1948	-35.32043	-3.271277E-005	-1.199988	8
	9	28	125.558	376.1789	-321.2564	1	494.688	-40.49729	-3.285371E-005	-1.199987	8
	10	31	99.734	388.5444	-397.6254	1	555.9431	-45.66179	-3.29617E-005	-1.19999	8
	11	33	79.44915	406.3467	-490.3145	1	636.8092	-50.34986	-3.312173E-005	-1.199982	8
	12	36	63.34459	430.9697	-604.2265	1	742.1755	-54.50131	-3.329715E-005	-1.19998	8
	13	38	49.86702	468.1473	-753.3708	1	886.9778	-58.14304	-3.343245E-005	-1.199979	8
	14	41	38.10976	532.4635	-960.489	1	1098.206	-60.99746	-3.356664E-005	-1.199981	8
	15	43	31.25	599.5768	-1146.762	1	1294.046	-62.39748	-3.36211E-005	-1.19998	8
	16	45	24.93351	707.4404	-1395.841	1	1564.878	-63.12319	-3.367465E-005	-1.199979	8
	17	48	19.94681	857.8749	-1686.781	1	1892.401	-63.0427	-3.376123E-005	-1.199978	8
	18	50	15.57309	1097.185	-2056.799	1	2331.146	-61.92262	-3.379905E-005	-1.199981	8
	19	53	12.40079	1410.884	-2431.006	1	2810.762	-59.87039	-3.391162E-005	-1.19998	8
	20	56	9.91015	1823.823	-2809.025	1	3349.172	-57.00543	-3.400901E-005	-1.199979	8
	21	59	7.971939	2339.141	-3148.359	1	3922.212	-53.38869	-3.411137E-005	-1.199979	8
	22	63	6.351626	2987.01	-3426.095	1	4545.366	-48.91675	-3.431183E-005	-1.19998	8
	23	67	4.970838	3769.501	-3584.426	1	5201.658	-43.55835	-3.449453E-005	-1.19998	8
	24	72	3.942389	4520.36	-3575.755	1	5763.651	-38.34517	-3.47581E-005	-1.19998	8
	25	78	3.16723	5129.314	-3441.431	1	6176.836	-33.859	-3.523229E-005	-1.199979	8
	26	85	2.485419	5742.526	-3214.981	1	6581.239	-29.2425	-3.570934E-005	-1.199979	8
	27	92	1.971194	6233.183	-2962.93	1	6901.56	-25.42397	-3.612162E-005	-1.19998	8
	28	101	1.605308	6540.333	-2789.215	1	7110.251	-23.09649	-3.646464E-005	-1.199977	8
	29	112	1.260081	6864.685	-2611.947	1	7344.805	-20.83134	-3.702292E-005	-1.199979	8
	30	125	1.001603	7159.191	-2509.813	1	7586.381	-19.31924	-3.743705E-005	-1.199979	8
