EXPLAIN
TAG	EISPOT
TITLE	LABEL	Potentiostatic EIS	Test &Identifier
DATE	LABEL	4/22/2026	Date
TIME	LABEL	13:36:02	Time
NOTES	NOTES	1	&Notes...
	
PSTAT	PSTAT	Rhea	Potentiostat
VDC	POTEN	-1.20000E+000	F	DC &Voltage (V)
FREQINIT	QUANT	1.00000E+003	Initial Fre&q. (Hz)
FREQFINAL	QUANT	1.00000E+000	Final Fre&q. (Hz)
PTSPERDEC	QUANT	1.00000E+001	Points/&decade
VAC	QUANT	1.00000E+001	AC &Voltage (mV rms)
AREA	QUANT	2.80000E-001	&Area (cm^2)
CONDIT	TWOPARAM	F	0.00000E+000	0.00000E+000	Conditionin&g	Time(s)	E(V)
DELAY	TWOPARAM	T	1.00000E+001	0.00000E+000	Init. De&lay	Time(s)	Stab.(mV/s)
SPEED	SELECTOR	2	&Optimize for:
ZGUESS	QUANT	2.86800E+005	E&stimated Z (ohms)
OCVCURVE	TABLE	40
	Pt	T	Vf	Vm	Ach	Over	Temp
	#	s	V vs. Ref.	V	V	bits	deg C
	0	0.25	-3.12183E-001	-3.12183E-001	0.00000E+000	...........	1416.07
	1	0.5	-3.12178E-001	-3.11927E-001	0.00000E+000	...........	1415.70
	2	0.75	-3.12148E-001	-3.11664E-001	0.00000E+000	...........	1415.63
	3	1	-3.12060E-001	-3.11375E-001	0.00000E+000	...........	1415.63
	4	1.25	-3.11897E-001	-3.11108E-001	0.00000E+000	...........	1415.63
	5	1.5	-3.11671E-001	-3.10839E-001	0.00000E+000	...........	1415.56
	6	1.75	-3.11410E-001	-3.10564E-001	0.00000E+000	...........	1415.55
	7	2	-3.11136E-001	-3.10280E-001	0.00000E+000	...........	1415.55
	8	2.25	-3.10859E-001	-3.09985E-001	0.00000E+000	...........	1415.55
	9	2.5	-3.10580E-001	-3.09719E-001	0.00000E+000	...........	1415.55
	10	2.75	-3.10299E-001	-3.09438E-001	0.00000E+000	...........	1415.55
	11	3	-3.10018E-001	-3.09173E-001	0.00000E+000	...........	1415.55
	12	3.25	-3.09740E-001	-3.08898E-001	0.00000E+000	...........	1415.55
	13	3.5	-3.09464E-001	-3.08618E-001	0.00000E+000	...........	1415.55
	14	3.75	-3.09191E-001	-3.08357E-001	0.00000E+000	...........	1415.55
	15	4	-3.08918E-001	-3.08081E-001	0.00000E+000	...........	1415.55
	16	4.25	-3.08645E-001	-3.07804E-001	0.00000E+000	...........	1415.55
	17	4.5	-3.08373E-001	-3.07521E-001	0.00000E+000	...........	1415.55
	18	4.75	-3.08099E-001	-3.07235E-001	0.00000E+000	...........	1415.55
	19	5	-3.07822E-001	-3.06966E-001	0.00000E+000	...........	1415.55
	20	5.25	-3.07543E-001	-3.06697E-001	0.00000E+000	...........	1415.55
	21	5.5	-3.07265E-001	-3.06406E-001	0.00000E+000	...........	1415.55
	22	5.75	-3.06987E-001	-3.06128E-001	0.00000E+000	...........	1415.55
	23	6	-3.06710E-001	-3.05845E-001	0.00000E+000	...........	1415.55
	24	6.25	-3.06430E-001	-3.05553E-001	0.00000E+000	...........	1415.55
	25	6.5	-3.06148E-001	-3.05277E-001	0.00000E+000	...........	1415.55
	26	6.75	-3.05865E-001	-3.04999E-001	0.00000E+000	...........	1415.55
	27	7	-3.05581E-001	-3.04708E-001	0.00000E+000	...........	1415.55
	28	7.25	-3.05299E-001	-3.04448E-001	0.00000E+000	...........	1415.55
	29	7.5	-3.05018E-001	-3.04154E-001	0.00000E+000	...........	1415.62
	30	7.75	-3.04738E-001	-3.03876E-001	0.00000E+000	...........	1415.63
	31	8	-3.04459E-001	-3.03603E-001	0.00000E+000	...........	1415.63
	32	8.25	-3.04180E-001	-3.03334E-001	0.00000E+000	...........	1415.63
	33	8.5	-3.03902E-001	-3.03058E-001	0.00000E+000	...........	1415.63
	34	8.75	-3.03626E-001	-3.02769E-001	0.00000E+000	...........	1415.63
	35	9	-3.03351E-001	-3.02476E-001	0.00000E+000	...........	1415.63
	36	9.25	-3.03072E-001	-3.02201E-001	0.00000E+000	...........	1415.63
	37	9.5	-3.02790E-001	-3.01937E-001	0.00000E+000	...........	1415.63
	38	9.75	-3.02508E-001	-3.01659E-001	0.00000E+000	...........	1415.63
	39	10	-3.02229E-001	-3.01379E-001	0.00000E+000	...........	1415.63
EOC	QUANT	-0.302229	Open Circuit (V)
PSTATMODEL	IQUANT	64	Pstat Model
PSTATSECTION	LABEL	IFC1010-22099	Pstat Section
PSTATSERIALNO	LABEL	22099	Pstat Serial Number
CTRLMODE	IQUANT	1	Control Mode
ELECTROMETER	IQUANT	0	RE=0 or CS=1
IESTAB	IQUANT	0	I/E Stability
CASPEED	IQUANT	3	Control Amp Speed
CONVENTION	IQUANT	1	Current Convention
ICHRANGE	IQUANT	2	Ich Range
ICHRANGEMODE	TOGGLE	F	Ich Auto Range
ICHOFFSETENABLE	TOGGLE	T	Ich Offset Enable
ICHOFFSET	QUANT	0	Ich Offset (V)
ICHFILTER	IQUANT	4	Ich Filter
VCHRANGE	IQUANT	2	Vch Range
VCHRANGEMODE	TOGGLE	F	Vch Auto Range
VCHOFFSETENABLE	TOGGLE	T	Vch Offset Enable
VCHOFFSET	QUANT	0	Vch Offset (V)
VCHFILTER	IQUANT	4	Vch Filter
IERANGELOWERLIMIT	IQUANT	4	I/E Range Lower Limit
IERANGEMODE	TOGGLE	F	I/E AutoRange
IERANGE	IQUANT	7	I/E Range
ACHSELECT	IQUANT	0	Ach Select
ACHRANGE	IQUANT	2	Ach Range
ACHOFFSETENABLE	TOGGLE	F	Ach Offset Enable
ACHOFFSET	QUANT	0	Ach Offset (V)
ACHFILTER	IQUANT	1	Ach Filter
SENSECABLEID	IQUANT	14	Sense Cable ID
PWRCABLEID	IQUANT	14	Power Cable ID
DCCALDATE	LABEL	11/25/2025	DC Calibration Date
ACCALDATE	LABEL	9/8/2018	AC Calibration Date
FRAMEWORKVERSION	QUANT	7.07	Framework Version
INSTRUMENTVERSION	LABEL	4.34	Instrument Version
ZCURVE	TABLE
	Pt	Time	Freq	Zreal	Zimag	Zsig	Zmod	Zphz	Idc	Vdc	IERange
	#	s	Hz	ohm	ohm	V	ohm	°	A	V	#
	0	8	1004.464	256.7673	-39.88759	1	259.847	-8.83005	-5.696627E-005	-1.200011	9
	1	10	800.3049	258.5649	-47.90751	1	262.9657	-10.49686	-5.230028E-005	-1.200009	9
	2	12	631.0096	260.6508	-58.26646	1	267.0839	-12.60086	-4.87907E-005	-1.200011	9
	3	15	498.6702	262.9419	-71.09248	1	272.3831	-15.12951	-4.624729E-005	-1.20001	9
	4	17	397.2458	265.377	-86.51383	1	279.1229	-18.05615	-4.41957E-005	-1.200008	9
	5	20	319.6023	268.1144	-104.7818	1	287.8621	-21.34605	-4.243958E-005	-1.200007	9
	6	22	251.1161	271.7753	-130.0323	1	301.2809	-25.56904	-4.101672E-005	-1.200009	9
	7	24	200.8929	275.929	-159.2299	1	318.5765	-29.98789	-3.952624E-005	-1.199988	8
	8	27	158.0056	281.7551	-198.3861	1	344.591	-35.1497	-3.836291E-005	-1.199989	8
	9	29	125.558	289.138	-245.0363	1	379.0034	-40.28033	-3.741879E-005	-1.199988	8
	10	31	99.734	299.107	-302.847	1	425.654	-45.35599	-3.660582E-005	-1.199992	8
	11	34	79.44915	312.0435	-373.3007	1	486.5434	-50.10762	-3.586718E-005	-1.199984	8
	12	36	63.34459	329.6395	-459.0772	1	565.1673	-54.31984	-3.514944E-005	-1.199982	8
	13	39	49.86702	353.9635	-570.8184	1	671.6575	-58.19702	-3.453195E-005	-1.199985	8
	14	41	38.10976	395.2704	-726.38	1	826.9623	-61.44653	-3.399685E-005	-1.199984	8
	15	44	31.25	435.1282	-865.7819	1	968.976	-63.31663	-3.344775E-005	-1.199982	8
	16	46	24.93351	495.1665	-1053.945	1	1164.47	-64.83483	-3.30556E-005	-1.199983	8
	17	48	19.94681	573.4958	-1276.266	1	1399.197	-65.80302	-3.263885E-005	-1.199983	8
	18	51	15.57309	690.3541	-1572.869	1	1717.704	-66.30267	-3.221838E-005	-1.199983	8
	19	53	12.40079	835.0752	-1897.618	1	2073.236	-66.24739	-3.183832E-005	-1.199984	8
	20	56	9.91015	1024.285	-2268.973	1	2489.458	-65.70411	-3.152402E-005	-1.199984	8
	21	59	7.971939	1264.189	-2684.192	1	2966.995	-64.78072	-3.122367E-005	-1.199985	8
	22	61	6.351626	1591.566	-3176.836	1	3553.219	-63.38955	-3.093564E-005	-1.199981	8
	23	64	4.970838	2058.931	-3766.585	1	4292.593	-61.33763	-3.058438E-005	-1.199982	8
	24	69	3.942389	2625.702	-4370.106	1	5098.249	-59.00119	-3.026474E-005	-1.199985	8
	25	73	3.16723	3295.706	-4961.666	1	5956.493	-56.40654	-2.991171E-005	-1.199985	8
	26	79	2.485419	4258.125	-5598.568	1	7033.889	-52.74432	-2.96459E-005	-1.199984	8
	27	84	1.971194	5258.818	-6157.699	1	8097.68	-49.5019	-2.928641E-005	-1.199985	8
	28	93	1.605308	6280.757	-6584.198	1	9099.427	-46.35116	-2.890805E-005	-1.199983	8
	29	104	1.260081	7618.02	-6937.323	1	10303.43	-42.32245	-2.855649E-005	-1.199983	8
	30	117	1.001603	8966.678	-7073.348	1	11420.75	-38.26808	-2.835577E-005	-1.199984	8
