EXPLAIN
TAG	EISPOT
TITLE	LABEL	Potentiostatic EIS	Test &Identifier
DATE	LABEL	4/22/2026	Date
TIME	LABEL	12:44:07	Time
NOTES	NOTES	1	&Notes...
	
PSTAT	PSTAT	Rhea	Potentiostat
VDC	POTEN	-1.20000E+000	F	DC &Voltage (V)
FREQINIT	QUANT	1.00000E+003	Initial Fre&q. (Hz)
FREQFINAL	QUANT	1.00000E+000	Final Fre&q. (Hz)
PTSPERDEC	QUANT	1.00000E+001	Points/&decade
VAC	QUANT	1.00000E+001	AC &Voltage (mV rms)
AREA	QUANT	2.80000E-001	&Area (cm^2)
CONDIT	TWOPARAM	F	0.00000E+000	0.00000E+000	Conditionin&g	Time(s)	E(V)
DELAY	TWOPARAM	T	1.00000E+001	0.00000E+000	Init. De&lay	Time(s)	Stab.(mV/s)
SPEED	SELECTOR	2	&Optimize for:
ZGUESS	QUANT	2.86800E+005	E&stimated Z (ohms)
OCVCURVE	TABLE	40
	Pt	T	Vf	Vm	Ach	Over	Temp
	#	s	V vs. Ref.	V	V	bits	deg C
	0	0.25	2.58064E-002	2.58064E-002	0.00000E+000	...........	1414.67
	1	0.5	2.58152E-002	2.62698E-002	0.00000E+000	...........	1414.67
	2	0.75	2.58705E-002	2.67542E-002	0.00000E+000	...........	1414.89
	3	1	2.60302E-002	2.72536E-002	0.00000E+000	...........	1415.19
	4	1.25	2.63250E-002	2.77628E-002	0.00000E+000	...........	1415.19
	5	1.5	2.67338E-002	2.82873E-002	0.00000E+000	...........	1415.19
	6	1.75	2.72118E-002	2.88203E-002	0.00000E+000	...........	1415.19
	7	2	2.77229E-002	2.93505E-002	0.00000E+000	...........	1415.19
	8	2.25	2.82478E-002	2.98961E-002	0.00000E+000	...........	1415.19
	9	2.5	2.87792E-002	3.04401E-002	0.00000E+000	...........	1415.19
	10	2.75	2.93152E-002	3.09865E-002	0.00000E+000	...........	1415.19
	11	3	2.98554E-002	3.15331E-002	0.00000E+000	...........	1415.19
	12	3.25	3.03989E-002	3.20876E-002	0.00000E+000	...........	1415.19
	13	3.5	3.09451E-002	3.26343E-002	0.00000E+000	...........	1415.19
	14	3.75	3.14932E-002	3.31824E-002	0.00000E+000	...........	1415.16
	15	4	3.20422E-002	3.37281E-002	0.00000E+000	...........	1415.11
	16	4.25	3.25908E-002	3.42725E-002	0.00000E+000	...........	1415.11
	17	4.5	3.31384E-002	3.48125E-002	0.00000E+000	...........	1415.11
	18	4.75	3.36841E-002	3.53506E-002	0.00000E+000	...........	1415.11
	19	5	3.42277E-002	3.58877E-002	0.00000E+000	...........	1415.11
	20	5.25	3.47690E-002	3.64310E-002	0.00000E+000	...........	1415.11
	21	5.5	3.53089E-002	3.69709E-002	0.00000E+000	...........	1415.11
	22	5.75	3.58483E-002	3.75024E-002	0.00000E+000	...........	1415.11
	23	6	3.63871E-002	3.80265E-002	0.00000E+000	...........	1415.11
	24	6.25	3.69235E-002	3.85484E-002	0.00000E+000	...........	1415.11
	25	6.5	3.74556E-002	3.90624E-002	0.00000E+000	...........	1415.11
	26	6.75	3.79822E-002	3.95729E-002	0.00000E+000	...........	1415.11
	27	7	3.85033E-002	4.00780E-002	0.00000E+000	...........	1415.11
	28	7.25	3.90191E-002	4.05808E-002	0.00000E+000	...........	1415.11
	29	7.5	3.95300E-002	4.10813E-002	0.00000E+000	...........	1415.11
	30	7.75	4.00367E-002	4.15774E-002	0.00000E+000	...........	1415.11
	31	8	4.05398E-002	4.20683E-002	0.00000E+000	...........	1415.11
	32	8.25	4.10394E-002	4.25527E-002	0.00000E+000	...........	1415.11
	33	8.5	4.15348E-002	4.30288E-002	0.00000E+000	...........	1415.11
	34	8.75	4.20252E-002	4.35039E-002	0.00000E+000	...........	1415.14
	35	9	4.25099E-002	4.39706E-002	0.00000E+000	...........	1415.19
	36	9.25	4.29889E-002	4.44335E-002	0.00000E+000	...........	1415.19
	37	9.5	4.34625E-002	4.48946E-002	0.00000E+000	...........	1415.19
	38	9.75	4.39311E-002	4.53456E-002	0.00000E+000	...........	1415.19
	39	10	4.43948E-002	4.57931E-002	0.00000E+000	...........	1415.19
EOC	QUANT	0.0443948	Open Circuit (V)
PSTATMODEL	IQUANT	64	Pstat Model
PSTATSECTION	LABEL	IFC1010-22099	Pstat Section
PSTATSERIALNO	LABEL	22099	Pstat Serial Number
CTRLMODE	IQUANT	1	Control Mode
ELECTROMETER	IQUANT	0	RE=0 or CS=1
IESTAB	IQUANT	0	I/E Stability
CASPEED	IQUANT	3	Control Amp Speed
CONVENTION	IQUANT	1	Current Convention
ICHRANGE	IQUANT	2	Ich Range
ICHRANGEMODE	TOGGLE	F	Ich Auto Range
ICHOFFSETENABLE	TOGGLE	T	Ich Offset Enable
ICHOFFSET	QUANT	0	Ich Offset (V)
ICHFILTER	IQUANT	4	Ich Filter
VCHRANGE	IQUANT	2	Vch Range
VCHRANGEMODE	TOGGLE	F	Vch Auto Range
VCHOFFSETENABLE	TOGGLE	T	Vch Offset Enable
VCHOFFSET	QUANT	0	Vch Offset (V)
VCHFILTER	IQUANT	4	Vch Filter
IERANGELOWERLIMIT	IQUANT	4	I/E Range Lower Limit
IERANGEMODE	TOGGLE	F	I/E AutoRange
IERANGE	IQUANT	7	I/E Range
ACHSELECT	IQUANT	0	Ach Select
ACHRANGE	IQUANT	2	Ach Range
ACHOFFSETENABLE	TOGGLE	F	Ach Offset Enable
ACHOFFSET	QUANT	0	Ach Offset (V)
ACHFILTER	IQUANT	1	Ach Filter
SENSECABLEID	IQUANT	14	Sense Cable ID
PWRCABLEID	IQUANT	14	Power Cable ID
DCCALDATE	LABEL	11/25/2025	DC Calibration Date
ACCALDATE	LABEL	9/8/2018	AC Calibration Date
FRAMEWORKVERSION	QUANT	7.07	Framework Version
INSTRUMENTVERSION	LABEL	4.34	Instrument Version
ZCURVE	TABLE
	Pt	Time	Freq	Zreal	Zimag	Zsig	Zmod	Zphz	Idc	Vdc	IERange
	#	s	Hz	ohm	ohm	V	ohm	°	A	V	#
	0	7	1004.464	260.7168	-49.70252	1	265.4121	-10.79324	-6.763371E-005	-1.199994	9
	1	10	800.3049	261.3991	-58.11536	1	267.7814	-12.53438	-5.683857E-005	-1.199993	9
	2	12	631.0096	263.461	-69.00443	1	272.3478	-14.67695	-5.007699E-005	-1.199997	9
	3	14	498.6702	266.541	-82.14133	1	278.9109	-17.128	-4.603996E-005	-1.199995	9
	4	17	397.2458	270.0673	-97.6971	1	287.1952	-19.88763	-4.325938E-005	-1.199995	9
	5	19	319.6023	273.7891	-115.8491	1	297.2902	-22.93481	-4.1419E-005	-1.199997	9
	6	21	251.1161	278.6488	-140.8029	1	312.2028	-26.80774	-4.023603E-005	-1.199992	9
	7	24	200.8929	283.9507	-169.5292	1	330.7086	-30.83879	-3.908199E-005	-1.199973	8
	8	26	158.0056	290.987	-208.2147	1	357.8083	-35.58548	-3.833988E-005	-1.199975	8
	9	29	125.558	299.4149	-254.4917	1	392.9571	-40.36332	-3.78249E-005	-1.199972	8
	10	31	99.734	310.697	-312.2066	1	440.4606	-45.13886	-3.752292E-005	-1.199973	8
	11	34	79.44915	325.8479	-382.3472	1	502.3606	-49.56136	-3.724619E-005	-1.199964	8
	12	36	63.34459	346.6628	-467.8573	1	582.2934	-53.4631	-3.707939E-005	-1.199965	8
	13	38	49.86702	376.666	-579.0253	1	690.7587	-56.9553	-3.685397E-005	-1.199966	8
	14	41	38.10976	425.1832	-734.9073	1	849.0403	-59.94832	-3.668584E-005	-1.199967	8
	15	43	31.25	474.316	-874.6832	1	995.011	-61.53027	-3.647704E-005	-1.199968	8
	16	45	24.93351	551.5805	-1062.946	1	1197.537	-62.57444	-3.633353E-005	-1.199968	8
	17	48	19.94681	656.2487	-1283.122	1	1441.203	-62.91267	-3.621848E-005	-1.199967	8
	18	50	15.57309	821.5799	-1568.236	1	1770.412	-62.3505	-3.608359E-005	-1.199968	8
	19	53	12.40079	1035.666	-1866.063	1	2134.197	-60.9697	-3.603491E-005	-1.199968	8
	20	55	9.91015	1320.277	-2185.547	1	2553.38	-58.86406	-3.593596E-005	-1.199967	8
	21	58	7.971939	1678.19	-2504.791	1	3015.012	-56.17823	-3.586239E-005	-1.199965	8
	22	62	6.351626	2154.31	-2805.005	1	3536.821	-52.4749	-3.585574E-005	-1.199963	8
	23	66	4.970838	2768.762	-3079.522	1	4141.196	-48.04166	-3.582429E-005	-1.199964	8
	24	71	3.942389	3414.4	-3207.05	1	4684.368	-43.20638	-3.597197E-005	-1.199965	8
	25	77	3.16723	4040.154	-3288.439	1	5209.287	-39.14349	-3.580813E-005	-1.199967	8
	26	83	2.485419	4725.287	-3251.374	1	5735.832	-34.53107	-3.585378E-005	-1.199966	8
	27	91	1.971194	5307.843	-3141.955	1	6168.069	-30.62323	-3.59615E-005	-1.199967	8
	28	100	1.605308	5727.182	-3019.648	1	6474.479	-27.80037	-3.604464E-005	-1.199967	8
	29	111	1.260081	6220.149	-2943.666	1	6881.527	-25.3257	-3.604839E-005	-1.199968	8
	30	124	1.001603	6653.889	-2921.061	1	7266.832	-23.7015	-3.604626E-005	-1.199969	8
