EXPLAIN
TAG	EISPOT
TITLE	LABEL	Potentiostatic EIS	Test &Identifier
DATE	LABEL	4/22/2026	Date
TIME	LABEL	13:26:45	Time
NOTES	NOTES	1	&Notes...
	
PSTAT	PSTAT	Rhea	Potentiostat
VDC	POTEN	-1.20000E+000	F	DC &Voltage (V)
FREQINIT	QUANT	1.00000E+003	Initial Fre&q. (Hz)
FREQFINAL	QUANT	1.00000E+000	Final Fre&q. (Hz)
PTSPERDEC	QUANT	1.00000E+001	Points/&decade
VAC	QUANT	1.00000E+001	AC &Voltage (mV rms)
AREA	QUANT	2.80000E-001	&Area (cm^2)
CONDIT	TWOPARAM	F	0.00000E+000	0.00000E+000	Conditionin&g	Time(s)	E(V)
DELAY	TWOPARAM	T	1.00000E+001	0.00000E+000	Init. De&lay	Time(s)	Stab.(mV/s)
SPEED	SELECTOR	2	&Optimize for:
ZGUESS	QUANT	2.86800E+005	E&stimated Z (ohms)
OCVCURVE	TABLE	40
	Pt	T	Vf	Vm	Ach	Over	Temp
	#	s	V vs. Ref.	V	V	bits	deg C
	0	0.25	-3.97639E-002	-3.97639E-002	0.00000E+000	...........	1415.55
	1	0.5	-3.97281E-002	-3.78919E-002	0.00000E+000	...........	1415.55
	2	0.75	-3.95090E-002	-3.61438E-002	0.00000E+000	...........	1415.55
	3	1	-3.88917E-002	-3.45078E-002	0.00000E+000	...........	1415.55
	4	1.25	-3.77947E-002	-3.29797E-002	0.00000E+000	...........	1415.81
	5	1.5	-3.63511E-002	-3.15610E-002	0.00000E+000	...........	1415.81
	6	1.75	-3.47745E-002	-3.02287E-002	0.00000E+000	...........	1415.81
	7	2	-3.32206E-002	-2.89891E-002	0.00000E+000	...........	1415.81
	8	2.25	-3.17590E-002	-2.78368E-002	0.00000E+000	...........	1415.81
	9	2.5	-3.04040E-002	-2.67643E-002	0.00000E+000	...........	1415.81
	10	2.75	-2.91492E-002	-2.57611E-002	0.00000E+000	...........	1415.81
	11	3	-2.79841E-002	-2.48286E-002	0.00000E+000	...........	1415.81
	12	3.25	-2.68997E-002	-2.39551E-002	0.00000E+000	...........	1415.81
	13	3.5	-2.58900E-002	-2.31975E-002	0.00000E+000	...........	1415.81
	14	3.75	-2.49528E-002	-2.24459E-002	0.00000E+000	...........	1415.81
	15	4	-2.40862E-002	-2.17462E-002	0.00000E+000	...........	1415.81
	16	4.25	-2.32834E-002	-2.10987E-002	0.00000E+000	...........	1415.81
	17	4.5	-2.25356E-002	-2.05071E-002	0.00000E+000	...........	1415.81
	18	4.75	-2.18373E-002	-1.99421E-002	0.00000E+000	...........	1415.81
	19	5	-2.11863E-002	-1.94232E-002	0.00000E+000	...........	1415.81
	20	5.25	-2.05804E-002	-1.89579E-002	0.00000E+000	...........	1415.90
	21	5.5	-2.00183E-002	-1.85263E-002	0.00000E+000	...........	1415.90
	22	5.75	-1.94993E-002	-1.81269E-002	0.00000E+000	...........	1415.90
	23	6	-1.90222E-002	-1.77544E-002	0.00000E+000	...........	1415.90
	24	6.25	-1.85830E-002	-1.73936E-002	0.00000E+000	...........	1415.90
	25	6.5	-1.81763E-002	-1.70773E-002	0.00000E+000	...........	1415.90
	26	6.75	-1.77979E-002	-1.67827E-002	0.00000E+000	...........	1415.90
	27	7	-1.74462E-002	-1.65031E-002	0.00000E+000	...........	1415.90
	28	7.25	-1.71204E-002	-1.62400E-002	0.00000E+000	...........	1415.90
	29	7.5	-1.68184E-002	-1.60002E-002	0.00000E+000	...........	1415.90
	30	7.75	-1.65371E-002	-1.57721E-002	0.00000E+000	...........	1415.90
	31	8	-1.62747E-002	-1.55619E-002	0.00000E+000	...........	1415.90
	32	8.25	-1.60300E-002	-1.53678E-002	0.00000E+000	...........	1415.90
	33	8.5	-1.58019E-002	-1.51856E-002	0.00000E+000	...........	1415.90
	34	8.75	-1.55897E-002	-1.50153E-002	0.00000E+000	...........	1415.90
	35	9	-1.53921E-002	-1.48443E-002	0.00000E+000	...........	1415.90
	36	9.25	-1.52067E-002	-1.46839E-002	0.00000E+000	...........	1415.90
	37	9.5	-1.50312E-002	-1.45449E-002	0.00000E+000	...........	1415.90
	38	9.75	-1.48650E-002	-1.44210E-002	0.00000E+000	...........	1415.90
	39	10	-1.47099E-002	-1.43084E-002	0.00000E+000	...........	1415.90
EOC	QUANT	-0.0147099	Open Circuit (V)
PSTATMODEL	IQUANT	64	Pstat Model
PSTATSECTION	LABEL	IFC1010-22099	Pstat Section
PSTATSERIALNO	LABEL	22099	Pstat Serial Number
CTRLMODE	IQUANT	1	Control Mode
ELECTROMETER	IQUANT	0	RE=0 or CS=1
IESTAB	IQUANT	0	I/E Stability
CASPEED	IQUANT	3	Control Amp Speed
CONVENTION	IQUANT	1	Current Convention
ICHRANGE	IQUANT	2	Ich Range
ICHRANGEMODE	TOGGLE	F	Ich Auto Range
ICHOFFSETENABLE	TOGGLE	T	Ich Offset Enable
ICHOFFSET	QUANT	0	Ich Offset (V)
ICHFILTER	IQUANT	4	Ich Filter
VCHRANGE	IQUANT	2	Vch Range
VCHRANGEMODE	TOGGLE	F	Vch Auto Range
VCHOFFSETENABLE	TOGGLE	T	Vch Offset Enable
VCHOFFSET	QUANT	0	Vch Offset (V)
VCHFILTER	IQUANT	4	Vch Filter
IERANGELOWERLIMIT	IQUANT	4	I/E Range Lower Limit
IERANGEMODE	TOGGLE	F	I/E AutoRange
IERANGE	IQUANT	7	I/E Range
ACHSELECT	IQUANT	0	Ach Select
ACHRANGE	IQUANT	2	Ach Range
ACHOFFSETENABLE	TOGGLE	F	Ach Offset Enable
ACHOFFSET	QUANT	0	Ach Offset (V)
ACHFILTER	IQUANT	1	Ach Filter
SENSECABLEID	IQUANT	14	Sense Cable ID
PWRCABLEID	IQUANT	14	Power Cable ID
DCCALDATE	LABEL	11/25/2025	DC Calibration Date
ACCALDATE	LABEL	9/8/2018	AC Calibration Date
FRAMEWORKVERSION	QUANT	7.07	Framework Version
INSTRUMENTVERSION	LABEL	4.34	Instrument Version
ZCURVE	TABLE
	Pt	Time	Freq	Zreal	Zimag	Zsig	Zmod	Zphz	Idc	Vdc	IERange
	#	s	Hz	ohm	ohm	V	ohm	°	A	V	#
	0	5	1004.464	328.249	-50.61523	1	332.1284	-8.765837	-3.004362E-005	-1.199995	8
	1	7	800.3049	322.266	-60.81847	1	327.9547	-10.68724	-2.765881E-005	-1.199996	8
	2	10	631.0096	318.9909	-74.12276	1	327.4895	-13.08147	-2.690971E-005	-1.199997	8
	3	12	498.6702	316.6739	-90.55186	1	329.3661	-15.95771	-2.673927E-005	-1.199995	8
	4	15	397.2458	315.0724	-110.3792	1	333.8475	-19.30688	-2.680527E-005	-1.199998	8
	5	17	319.6023	312.5269	-133.8563	1	339.9862	-23.18561	-2.692647E-005	-1.199994	8
	6	20	251.1161	310.9018	-166.3873	1	352.6253	-28.15463	-2.716474E-005	-1.199995	8
	7	22	200.8929	310.1945	-204.0148	1	371.2717	-33.33291	-2.732979E-005	-1.199992	8
	8	25	158.0056	313.0437	-254.743	1	403.5967	-39.13738	-2.75414E-005	-1.199995	8
	9	27	125.558	320.1719	-315.4795	1	449.4857	-44.57705	-2.776394E-005	-1.199993	8
	10	30	99.734	330.5741	-390.9142	1	511.9503	-49.78068	-2.793664E-005	-1.199996	8
	11	32	79.44915	345.7449	-483.2861	1	594.2264	-54.41991	-2.807997E-005	-1.199986	8
	12	35	63.34459	367.7236	-596.4498	1	700.6946	-58.34531	-2.830354E-005	-1.199988	8
	13	37	49.86702	402.9956	-743.7797	1	845.9395	-61.55023	-2.846727E-005	-1.199987	8
	14	39	38.10976	460.6846	-952.125	1	1057.72	-64.18004	-2.869023E-005	-1.199987	8
	15	42	31.25	522.7961	-1138.532	1	1252.825	-65.33616	-2.886561E-005	-1.199985	8
	16	44	24.93351	623.4914	-1390.754	1	1524.119	-65.85274	-2.909882E-005	-1.199985	8
	17	47	19.94681	766.4142	-1684.671	1	1850.813	-65.5376	-2.925352E-005	-1.199985	8
	18	49	15.57309	998.437	-2064.274	1	2293.055	-64.18811	-2.941502E-005	-1.199983	8
	19	52	12.40079	1302.937	-2454.977	1	2779.309	-62.04363	-2.9581E-005	-1.199983	8
	20	55	9.91015	1711.224	-2853.986	1	3327.691	-59.05349	-2.975377E-005	-1.199985	8
	21	59	7.971939	2237.611	-3220.231	1	3921.325	-55.2061	-2.999588E-005	-1.199985	8
	22	63	6.351626	2907.895	-3529.69	1	4573.245	-50.51699	-3.022358E-005	-1.199987	8
	23	67	4.970838	3736.935	-3714.332	1	5268.865	-44.8262	-3.043187E-005	-1.199985	8
	24	72	3.942389	4538.817	-3718.377	1	5867.469	-39.32568	-3.061198E-005	-1.199985	8
	25	77	3.16723	5218.958	-3545.181	1	6309.186	-34.18784	-3.111822E-005	-1.199984	8
	26	84	2.485419	5853.632	-3295.187	1	6717.385	-29.37648	-3.154288E-005	-1.199983	8
	27	92	1.971194	6304.59	-2993.576	1	6979.208	-25.39953	-3.206787E-005	-1.199984	8
	28	101	1.605308	6610.53	-2752.101	1	7160.529	-22.60298	-3.26535E-005	-1.199984	8
	29	112	1.260081	6882.561	-2519.106	1	7329.089	-20.10328	-3.325383E-005	-1.199982	8
	30	125	1.001603	7124.939	-2409.625	1	7521.373	-18.68532	-3.375682E-005	-1.199982	8
