EXPLAIN
TAG	EISPOT
TITLE	LABEL	Potentiostatic EIS	Test &Identifier
DATE	LABEL	4/22/2026	Date
TIME	LABEL	12:35:49	Time
NOTES	NOTES	1	&Notes...
	
PSTAT	PSTAT	Rhea	Potentiostat
VDC	POTEN	-1.60000E+000	F	DC &Voltage (V)
FREQINIT	QUANT	1.00000E+003	Initial Fre&q. (Hz)
FREQFINAL	QUANT	1.00000E+000	Final Fre&q. (Hz)
PTSPERDEC	QUANT	1.00000E+001	Points/&decade
VAC	QUANT	1.00000E+001	AC &Voltage (mV rms)
AREA	QUANT	2.80000E-001	&Area (cm^2)
CONDIT	TWOPARAM	F	0.00000E+000	0.00000E+000	Conditionin&g	Time(s)	E(V)
DELAY	TWOPARAM	T	1.00000E+001	0.00000E+000	Init. De&lay	Time(s)	Stab.(mV/s)
SPEED	SELECTOR	2	&Optimize for:
ZGUESS	QUANT	2.86800E+005	E&stimated Z (ohms)
OCVCURVE	TABLE	40
	Pt	T	Vf	Vm	Ach	Over	Temp
	#	s	V vs. Ref.	V	V	bits	deg C
	0	0.25	-2.98993E-001	-2.98993E-001	0.00000E+000	...........	1415.37
	1	0.5	-2.98958E-001	-2.97184E-001	0.00000E+000	...........	1415.37
	2	0.75	-2.98745E-001	-2.95410E-001	0.00000E+000	...........	1415.37
	3	1	-2.98136E-001	-2.93638E-001	0.00000E+000	...........	1414.59
	4	1.25	-2.97034E-001	-2.91935E-001	0.00000E+000	...........	1414.49
	5	1.5	-2.95545E-001	-2.90257E-001	0.00000E+000	...........	1414.49
	6	1.75	-2.93863E-001	-2.88621E-001	0.00000E+000	...........	1414.49
	7	2	-2.92135E-001	-2.87019E-001	0.00000E+000	...........	1414.88
	8	2.25	-2.90435E-001	-2.85458E-001	0.00000E+000	...........	1414.93
	9	2.5	-2.88780E-001	-2.83907E-001	0.00000E+000	...........	1414.93
	10	2.75	-2.87169E-001	-2.82399E-001	0.00000E+000	...........	1414.93
	11	3	-2.85594E-001	-2.80904E-001	0.00000E+000	...........	1414.85
	12	3.25	-2.84050E-001	-2.79445E-001	0.00000E+000	...........	1414.84
	13	3.5	-2.82533E-001	-2.78028E-001	0.00000E+000	...........	1414.84
	14	3.75	-2.81045E-001	-2.76639E-001	0.00000E+000	...........	1414.84
	15	4	-2.79587E-001	-2.75260E-001	0.00000E+000	...........	1414.84
	16	4.25	-2.78160E-001	-2.73915E-001	0.00000E+000	...........	1414.84
	17	4.5	-2.76761E-001	-2.72602E-001	0.00000E+000	...........	1414.84
	18	4.75	-2.75388E-001	-2.71297E-001	0.00000E+000	...........	1414.84
	19	5	-2.74040E-001	-2.69999E-001	0.00000E+000	...........	1414.84
	20	5.25	-2.72714E-001	-2.68717E-001	0.00000E+000	...........	1414.84
	21	5.5	-2.71405E-001	-2.67495E-001	0.00000E+000	...........	1414.84
	22	5.75	-2.70116E-001	-2.66308E-001	0.00000E+000	...........	1414.84
	23	6	-2.68852E-001	-2.65121E-001	0.00000E+000	...........	1414.92
	24	6.25	-2.67617E-001	-2.63966E-001	0.00000E+000	...........	1414.93
	25	6.5	-2.66411E-001	-2.62809E-001	0.00000E+000	...........	1414.93
	26	6.75	-2.65227E-001	-2.61683E-001	0.00000E+000	...........	1414.93
	27	7	-2.64063E-001	-2.60598E-001	0.00000E+000	...........	1414.93
	28	7.25	-2.62918E-001	-2.59504E-001	0.00000E+000	...........	1414.93
	29	7.5	-2.61793E-001	-2.58446E-001	0.00000E+000	...........	1414.93
	30	7.75	-2.60690E-001	-2.57406E-001	0.00000E+000	...........	1414.93
	31	8	-2.59607E-001	-2.56384E-001	0.00000E+000	...........	1414.85
	32	8.25	-2.58543E-001	-2.55359E-001	0.00000E+000	...........	1414.84
	33	8.5	-2.57498E-001	-2.54346E-001	0.00000E+000	...........	1414.84
	34	8.75	-2.56466E-001	-2.53368E-001	0.00000E+000	...........	1414.84
	35	9	-2.55448E-001	-2.52406E-001	0.00000E+000	...........	1414.84
	36	9.25	-2.54445E-001	-2.51460E-001	0.00000E+000	...........	1414.84
	37	9.5	-2.53459E-001	-2.50507E-001	0.00000E+000	...........	1414.84
	38	9.75	-2.52490E-001	-2.49583E-001	0.00000E+000	...........	1414.84
	39	10	-2.51536E-001	-2.48670E-001	0.00000E+000	...........	1414.92
EOC	QUANT	-0.2515359	Open Circuit (V)
PSTATMODEL	IQUANT	64	Pstat Model
PSTATSECTION	LABEL	IFC1010-22099	Pstat Section
PSTATSERIALNO	LABEL	22099	Pstat Serial Number
CTRLMODE	IQUANT	1	Control Mode
ELECTROMETER	IQUANT	0	RE=0 or CS=1
IESTAB	IQUANT	0	I/E Stability
CASPEED	IQUANT	3	Control Amp Speed
CONVENTION	IQUANT	1	Current Convention
ICHRANGE	IQUANT	2	Ich Range
ICHRANGEMODE	TOGGLE	F	Ich Auto Range
ICHOFFSETENABLE	TOGGLE	T	Ich Offset Enable
ICHOFFSET	QUANT	0	Ich Offset (V)
ICHFILTER	IQUANT	4	Ich Filter
VCHRANGE	IQUANT	2	Vch Range
VCHRANGEMODE	TOGGLE	F	Vch Auto Range
VCHOFFSETENABLE	TOGGLE	T	Vch Offset Enable
VCHOFFSET	QUANT	0	Vch Offset (V)
VCHFILTER	IQUANT	4	Vch Filter
IERANGELOWERLIMIT	IQUANT	4	I/E Range Lower Limit
IERANGEMODE	TOGGLE	F	I/E AutoRange
IERANGE	IQUANT	7	I/E Range
ACHSELECT	IQUANT	0	Ach Select
ACHRANGE	IQUANT	2	Ach Range
ACHOFFSETENABLE	TOGGLE	F	Ach Offset Enable
ACHOFFSET	QUANT	0	Ach Offset (V)
ACHFILTER	IQUANT	1	Ach Filter
SENSECABLEID	IQUANT	14	Sense Cable ID
PWRCABLEID	IQUANT	14	Power Cable ID
DCCALDATE	LABEL	11/25/2025	DC Calibration Date
ACCALDATE	LABEL	9/8/2018	AC Calibration Date
FRAMEWORKVERSION	QUANT	7.07	Framework Version
INSTRUMENTVERSION	LABEL	4.34	Instrument Version
ZCURVE	TABLE
	Pt	Time	Freq	Zreal	Zimag	Zsig	Zmod	Zphz	Idc	Vdc	IERange
	#	s	Hz	ohm	ohm	V	ohm	°	A	V	#
	0	8	1004.464	213.2842	-44.48594	1	217.8741	-11.78161	-7.150388E-005	-1.600023	9
	1	11	800.3049	216.993	-52.4671	1	223.2459	-13.59276	-6.954722E-005	-1.600023	9
	2	13	631.0096	221.7395	-62.09586	1	230.2701	-15.64435	-6.882669E-005	-1.600021	9
	3	15	498.6702	227.3539	-73.02251	1	238.793	-17.80621	-6.875405E-005	-1.600019	9
	4	18	397.2458	233.6882	-85.11115	1	248.7048	-20.01204	-6.901305E-005	-1.600021	9
	5	20	319.6023	240.5414	-98.2861	1	259.8467	-22.2251	-6.949937E-005	-1.600022	9
	6	23	251.1161	249.0565	-115.4291	1	274.5051	-24.8661	-6.997674E-005	-1.600019	9
	7	25	200.8929	257.9291	-134.2569	1	290.7788	-27.49781	-7.04842E-005	-1.600017	9
	8	27	158.0056	268.8639	-158.6893	1	312.202	-30.55002	-7.117903E-005	-1.600019	9
	9	30	125.558	281.4013	-187.0755	1	337.9112	-33.61596	-7.185471E-005	-1.60002	9
	10	32	99.734	297.0096	-221.4184	1	370.4602	-36.70426	-7.238422E-005	-1.600021	9
	11	35	79.44915	316.7678	-262.3295	1	411.2889	-39.62966	-7.327097E-005	-1.600012	9
	12	37	63.34459	342.8948	-310.3768	1	462.5047	-42.15033	-7.369866E-005	-1.600011	9
	13	39	49.86702	379.6406	-369.3356	1	529.6563	-44.21173	-7.419623E-005	-1.600011	9
	14	42	38.10976	438.5058	-445.3022	1	624.9651	-45.44059	-7.486236E-005	-1.600013	9
	15	44	31.25	495.6194	-505.2019	1	707.72	-45.54857	-7.550415E-005	-1.600012	9
	16	47	24.93351	578.9705	-573.7142	1	815.0797	-44.73874	-7.607626E-005	-1.600013	9
	17	50	19.94681	681.4623	-635.9292	1	932.0927	-43.02047	-7.677198E-005	-1.600011	9
	18	52	15.57309	817.6016	-689.2573	1	1069.368	-40.13168	-7.742066E-005	-1.60001	9
	19	55	12.40079	956.861	-714.33	1	1194.09	-36.74262	-7.830405E-005	-1.600011	9
	20	59	9.91015	1097.768	-711.8799	1	1308.384	-32.96257	-7.923079E-005	-1.600013	9
	21	62	7.971939	1226.446	-681.676	1	1403.158	-29.06591	-8.009691E-005	-1.600014	9
	22	66	6.351626	1343.742	-628.4643	1	1483.445	-25.06536	-8.091829E-005	-1.600011	9
	23	70	4.970838	1438.134	-551.2084	1	1540.149	-20.97085	-8.226028E-005	-1.600009	9
	24	77	3.942389	1496.854	-472.8454	1	1569.762	-17.53095	-8.384845E-005	-1.60001	9
	25	84	3.16723	1527.414	-399.4651	1	1578.786	-14.65632	-8.551914E-005	-1.600011	9
	26	92	2.485419	1536.343	-328.7249	1	1571.117	-12.07723	-8.752509E-005	-1.60001	9
	27	103	1.971194	1530.914	-269.1769	1	1554.398	-9.97225	-8.926544E-005	-1.600011	9
	28	114	1.605308	1506.905	-222.5101	1	1523.245	-8.399617	-9.153037E-005	-1.600011	9
	29	127	1.260081	1474.159	-179.5617	1	1485.055	-6.944767	-9.398344E-005	-1.600012	9
	30	143	1.001603	1445.127	-147.2648	1	1452.611	-5.818607	-0.0000962	-1.600013	9
