EXPLAIN
TAG	EISPOT
TITLE	LABEL	Potentiostatic EIS	Test &Identifier
DATE	LABEL	4/22/2026	Date
TIME	LABEL	13:32:52	Time
NOTES	NOTES	1	&Notes...
	
PSTAT	PSTAT	Rhea	Potentiostat
VDC	POTEN	-1.60000E+000	F	DC &Voltage (V)
FREQINIT	QUANT	1.00000E+003	Initial Fre&q. (Hz)
FREQFINAL	QUANT	1.00000E+000	Final Fre&q. (Hz)
PTSPERDEC	QUANT	1.00000E+001	Points/&decade
VAC	QUANT	1.00000E+001	AC &Voltage (mV rms)
AREA	QUANT	2.80000E-001	&Area (cm^2)
CONDIT	TWOPARAM	F	0.00000E+000	0.00000E+000	Conditionin&g	Time(s)	E(V)
DELAY	TWOPARAM	T	1.00000E+001	0.00000E+000	Init. De&lay	Time(s)	Stab.(mV/s)
SPEED	SELECTOR	2	&Optimize for:
ZGUESS	QUANT	2.86800E+005	E&stimated Z (ohms)
OCVCURVE	TABLE	40
	Pt	T	Vf	Vm	Ach	Over	Temp
	#	s	V vs. Ref.	V	V	bits	deg C
	0	0.25	-1.32600E-001	-1.32600E-001	0.00000E+000	...........	1415.55
	1	0.5	-1.32596E-001	-1.32399E-001	0.00000E+000	...........	1415.55
	2	0.75	-1.32573E-001	-1.32203E-001	0.00000E+000	...........	1415.55
	3	1	-1.32505E-001	-1.32003E-001	0.00000E+000	...........	1415.55
	4	1.25	-1.32382E-001	-1.31813E-001	0.00000E+000	...........	1415.28
	5	1.5	-1.32216E-001	-1.31624E-001	0.00000E+000	...........	1415.28
	6	1.75	-1.32028E-001	-1.31437E-001	0.00000E+000	...........	1415.28
	7	2	-1.31834E-001	-1.31244E-001	0.00000E+000	...........	1415.28
	8	2.25	-1.31641E-001	-1.31058E-001	0.00000E+000	...........	1415.19
	9	2.5	-1.31450E-001	-1.30875E-001	0.00000E+000	...........	1415.19
	10	2.75	-1.31262E-001	-1.30697E-001	0.00000E+000	...........	1415.19
	11	3	-1.31075E-001	-1.30518E-001	0.00000E+000	...........	1415.19
	12	3.25	-1.30892E-001	-1.30341E-001	0.00000E+000	...........	1415.19
	13	3.5	-1.30711E-001	-1.30162E-001	0.00000E+000	...........	1415.19
	14	3.75	-1.30532E-001	-1.29989E-001	0.00000E+000	...........	1415.19
	15	4	-1.30355E-001	-1.29814E-001	0.00000E+000	...........	1415.19
	16	4.25	-1.30178E-001	-1.29644E-001	0.00000E+000	...........	1415.19
	17	4.5	-1.30003E-001	-1.29474E-001	0.00000E+000	...........	1415.19
	18	4.75	-1.29830E-001	-1.29299E-001	0.00000E+000	...........	1415.19
	19	5	-1.29658E-001	-1.29131E-001	0.00000E+000	...........	1415.19
	20	5.25	-1.29486E-001	-1.28964E-001	0.00000E+000	...........	1415.55
	21	5.5	-1.29315E-001	-1.28795E-001	0.00000E+000	...........	1415.55
	22	5.75	-1.29145E-001	-1.28631E-001	0.00000E+000	...........	1415.55
	23	6	-1.28977E-001	-1.28464E-001	0.00000E+000	...........	1415.55
	24	6.25	-1.28810E-001	-1.28306E-001	0.00000E+000	...........	1415.72
	25	6.5	-1.28644E-001	-1.28149E-001	0.00000E+000	...........	1415.72
	26	6.75	-1.28481E-001	-1.27989E-001	0.00000E+000	...........	1415.72
	27	7	-1.28320E-001	-1.27832E-001	0.00000E+000	...........	1415.72
	28	7.25	-1.28161E-001	-1.27687E-001	0.00000E+000	...........	1415.72
	29	7.5	-1.28004E-001	-1.27538E-001	0.00000E+000	...........	1415.72
	30	7.75	-1.27850E-001	-1.27385E-001	0.00000E+000	...........	1415.72
	31	8	-1.27698E-001	-1.27235E-001	0.00000E+000	...........	1415.72
	32	8.25	-1.27547E-001	-1.27090E-001	0.00000E+000	...........	1415.72
	33	8.5	-1.27398E-001	-1.26942E-001	0.00000E+000	...........	1415.72
	34	8.75	-1.27249E-001	-1.26796E-001	0.00000E+000	...........	1415.72
	35	9	-1.27101E-001	-1.26651E-001	0.00000E+000	...........	1415.72
	36	9.25	-1.26954E-001	-1.26509E-001	0.00000E+000	...........	1415.72
	37	9.5	-1.26808E-001	-1.26367E-001	0.00000E+000	...........	1415.72
	38	9.75	-1.26664E-001	-1.26228E-001	0.00000E+000	...........	1415.72
	39	10	-1.26521E-001	-1.26074E-001	0.00000E+000	...........	1415.72
EOC	QUANT	-0.1265206	Open Circuit (V)
PSTATMODEL	IQUANT	64	Pstat Model
PSTATSECTION	LABEL	IFC1010-22099	Pstat Section
PSTATSERIALNO	LABEL	22099	Pstat Serial Number
CTRLMODE	IQUANT	1	Control Mode
ELECTROMETER	IQUANT	0	RE=0 or CS=1
IESTAB	IQUANT	0	I/E Stability
CASPEED	IQUANT	3	Control Amp Speed
CONVENTION	IQUANT	1	Current Convention
ICHRANGE	IQUANT	2	Ich Range
ICHRANGEMODE	TOGGLE	F	Ich Auto Range
ICHOFFSETENABLE	TOGGLE	T	Ich Offset Enable
ICHOFFSET	QUANT	0	Ich Offset (V)
ICHFILTER	IQUANT	4	Ich Filter
VCHRANGE	IQUANT	2	Vch Range
VCHRANGEMODE	TOGGLE	F	Vch Auto Range
VCHOFFSETENABLE	TOGGLE	T	Vch Offset Enable
VCHOFFSET	QUANT	0	Vch Offset (V)
VCHFILTER	IQUANT	4	Vch Filter
IERANGELOWERLIMIT	IQUANT	4	I/E Range Lower Limit
IERANGEMODE	TOGGLE	F	I/E AutoRange
IERANGE	IQUANT	7	I/E Range
ACHSELECT	IQUANT	0	Ach Select
ACHRANGE	IQUANT	2	Ach Range
ACHOFFSETENABLE	TOGGLE	F	Ach Offset Enable
ACHOFFSET	QUANT	0	Ach Offset (V)
ACHFILTER	IQUANT	1	Ach Filter
SENSECABLEID	IQUANT	14	Sense Cable ID
PWRCABLEID	IQUANT	14	Power Cable ID
DCCALDATE	LABEL	11/25/2025	DC Calibration Date
ACCALDATE	LABEL	9/8/2018	AC Calibration Date
FRAMEWORKVERSION	QUANT	7.07	Framework Version
INSTRUMENTVERSION	LABEL	4.34	Instrument Version
ZCURVE	TABLE
	Pt	Time	Freq	Zreal	Zimag	Zsig	Zmod	Zphz	Idc	Vdc	IERange
	#	s	Hz	ohm	ohm	V	ohm	°	A	V	#
	0	8	1004.464	254.9524	-35.97575	1	257.4781	-8.031848	-0.0000957	-1.600046	9
	1	11	800.3049	256.8077	-42.97865	1	260.3792	-9.50082	-0.0000957	-1.600047	9
	2	13	631.0096	259.1159	-51.90481	1	264.2635	-11.32728	-0.000096	-1.600043	9
	3	15	498.6702	261.9946	-62.62545	1	269.3754	-13.44335	-0.0000965	-1.600043	9
	4	18	397.2458	265.3179	-75.25883	1	275.7852	-15.83627	-0.0000975	-1.600045	9
	5	20	319.6023	269.3559	-89.9591	1	283.981	-18.46822	-0.0000985	-1.600045	9
	6	22	251.1161	275.2714	-109.9198	1	296.4063	-21.76752	-0.0000998	-1.600044	9
	7	25	200.8929	282.6612	-132.4259	1	312.1442	-25.10294	-0.0001009	-1.600044	9
	8	27	158.0056	293.8314	-161.6457	1	335.3598	-28.81654	-0.0001021	-1.600042	9
	9	30	125.558	308.7932	-195.0047	1	365.2123	-32.27266	-0.0001033	-1.600044	9
	10	32	99.734	329.8493	-233.9046	1	404.366	-35.34143	-0.0001045	-1.600042	9
	11	34	79.44915	358.7592	-277.6135	1	453.627	-37.73326	-0.0001056	-1.600032	9
	12	37	63.34459	397.9625	-324.5573	1	513.5286	-39.19888	-0.0001067	-1.600035	9
	13	39	49.86702	453.4265	-375.8577	1	588.9521	-39.65627	-0.0001077	-1.600034	9
	14	42	38.10976	533.6357	-430.3978	1	685.5723	-38.88752	-0.0001087	-1.600034	9
	15	44	31.25	604.778	-462.5833	1	761.4064	-37.4117	-0.0001097	-1.600036	9
	16	46	24.93351	695.5416	-487.6454	1	849.4564	-35.03436	-0.0001108	-1.600036	9
	17	49	19.94681	790.5966	-496.1801	1	933.4011	-32.11247	-0.0001119	-1.600034	9
	18	52	15.57309	893.4119	-484.6121	1	1016.383	-28.47667	-0.0001134	-1.600031	9
	19	55	12.40079	979.497	-457.5013	1	1081.075	-25.03622	-0.0001146	-1.600032	9
	20	58	9.91015	1051.42	-419.6666	1	1132.079	-21.75905	-0.0001159	-1.600034	9
	21	61	7.971939	1105.839	-376.426	1	1168.151	-18.7985	-0.0001175	-1.600031	9
	22	65	6.351626	1145.208	-328.4563	1	1191.379	-16.00339	-0.0001193	-1.600031	9
	23	70	4.970838	1177.6	-281.9362	1	1210.88	-13.46409	-0.0001209	-1.600032	9
	24	74	3.942389	1195.918	-241.0328	1	1219.965	-11.3951	-0.0001224	-1.600032	9
	25	80	3.16723	1200.062	-206.8564	1	1217.76	-9.78005	-0.0001243	-1.600032	9
	26	87	2.485419	1202.768	-178.2975	1	1215.912	-8.432077	-0.0001263	-1.600031	9
	27	94	1.971194	1192.396	-152.6432	1	1202.127	-7.294974	-0.0001289	-1.600032	9
	28	104	1.605308	1177.988	-133.1725	1	1185.492	-6.449949	-0.0001317	-1.600032	9
	29	114	1.260081	1159.545	-115.9164	1	1165.325	-5.708727	-0.0001344	-1.600033	9
	30	128	1.001603	1144.329	-102.3525	1	1148.898	-5.111116	-0.0001368	-1.600028	9
