EXPLAIN
TAG	EISPOT
TITLE	LABEL	Potentiostatic EIS	Test &Identifier
DATE	LABEL	4/22/2026	Date
TIME	LABEL	12:49:39	Time
NOTES	NOTES	1	&Notes...
	
PSTAT	PSTAT	Rhea	Potentiostat
VDC	POTEN	-1.60000E+000	F	DC &Voltage (V)
FREQINIT	QUANT	1.00000E+003	Initial Fre&q. (Hz)
FREQFINAL	QUANT	1.00000E+000	Final Fre&q. (Hz)
PTSPERDEC	QUANT	1.00000E+001	Points/&decade
VAC	QUANT	1.00000E+001	AC &Voltage (mV rms)
AREA	QUANT	2.80000E-001	&Area (cm^2)
CONDIT	TWOPARAM	F	0.00000E+000	0.00000E+000	Conditionin&g	Time(s)	E(V)
DELAY	TWOPARAM	T	1.00000E+001	0.00000E+000	Init. De&lay	Time(s)	Stab.(mV/s)
SPEED	SELECTOR	2	&Optimize for:
ZGUESS	QUANT	2.86800E+005	E&stimated Z (ohms)
OCVCURVE	TABLE	40
	Pt	T	Vf	Vm	Ach	Over	Temp
	#	s	V vs. Ref.	V	V	bits	deg C
	0	0.25	-3.13592E-001	-3.13592E-001	0.00000E+000	...........	1414.93
	1	0.5	-3.13567E-001	-3.12310E-001	0.00000E+000	...........	1414.93
	2	0.75	-3.13416E-001	-3.11045E-001	0.00000E+000	...........	1414.93
	3	1	-3.12984E-001	-3.09796E-001	0.00000E+000	...........	1414.93
	4	1.25	-3.12201E-001	-3.08576E-001	0.00000E+000	...........	1415.28
	5	1.5	-3.11144E-001	-3.07381E-001	0.00000E+000	...........	1415.28
	6	1.75	-3.09948E-001	-3.06196E-001	0.00000E+000	...........	1415.28
	7	2	-3.08717E-001	-3.05030E-001	0.00000E+000	...........	1415.28
	8	2.25	-3.07498E-001	-3.03914E-001	0.00000E+000	...........	1415.28
	9	2.5	-3.06308E-001	-3.02796E-001	0.00000E+000	...........	1415.28
	10	2.75	-3.05147E-001	-3.01713E-001	0.00000E+000	...........	1415.28
	11	3	-3.04011E-001	-3.00626E-001	0.00000E+000	...........	1415.28
	12	3.25	-3.02899E-001	-2.99596E-001	0.00000E+000	...........	1415.28
	13	3.5	-3.01807E-001	-2.98552E-001	0.00000E+000	...........	1415.28
	14	3.75	-3.00734E-001	-2.97527E-001	0.00000E+000	...........	1415.28
	15	4	-2.99681E-001	-2.96536E-001	0.00000E+000	...........	1415.28
	16	4.25	-2.98644E-001	-2.95552E-001	0.00000E+000	...........	1415.37
	17	4.5	-2.97625E-001	-2.94577E-001	0.00000E+000	...........	1415.37
	18	4.75	-2.96623E-001	-2.93628E-001	0.00000E+000	...........	1415.37
	19	5	-2.95637E-001	-2.92686E-001	0.00000E+000	...........	1415.37
	20	5.25	-2.94667E-001	-2.91779E-001	0.00000E+000	...........	1415.28
	21	5.5	-2.93713E-001	-2.90882E-001	0.00000E+000	...........	1415.28
	22	5.75	-2.92778E-001	-2.90003E-001	0.00000E+000	...........	1415.28
	23	6	-2.91862E-001	-2.89118E-001	0.00000E+000	...........	1415.28
	24	6.25	-2.90961E-001	-2.88262E-001	0.00000E+000	...........	1415.28
	25	6.5	-2.90074E-001	-2.87394E-001	0.00000E+000	...........	1415.28
	26	6.75	-2.89198E-001	-2.86553E-001	0.00000E+000	...........	1415.28
	27	7	-2.88331E-001	-2.85728E-001	0.00000E+000	...........	1415.28
	28	7.25	-2.87475E-001	-2.84918E-001	0.00000E+000	...........	1415.28
	29	7.5	-2.86632E-001	-2.84116E-001	0.00000E+000	...........	1415.28
	30	7.75	-2.85803E-001	-2.83329E-001	0.00000E+000	...........	1415.28
	31	8	-2.84989E-001	-2.82557E-001	0.00000E+000	...........	1415.28
	32	8.25	-2.84188E-001	-2.81798E-001	0.00000E+000	...........	1415.28
	33	8.5	-2.83401E-001	-2.81031E-001	0.00000E+000	...........	1415.28
	34	8.75	-2.82624E-001	-2.80274E-001	0.00000E+000	...........	1415.28
	35	9	-2.81857E-001	-2.79543E-001	0.00000E+000	...........	1415.28
	36	9.25	-2.81097E-001	-2.78824E-001	0.00000E+000	...........	1415.28
	37	9.5	-2.80348E-001	-2.78102E-001	0.00000E+000	...........	1415.28
	38	9.75	-2.79610E-001	-2.77393E-001	0.00000E+000	...........	1415.28
	39	10	-2.78883E-001	-2.76686E-001	0.00000E+000	...........	1415.28
EOC	QUANT	-0.2788826	Open Circuit (V)
PSTATMODEL	IQUANT	64	Pstat Model
PSTATSECTION	LABEL	IFC1010-22099	Pstat Section
PSTATSERIALNO	LABEL	22099	Pstat Serial Number
CTRLMODE	IQUANT	1	Control Mode
ELECTROMETER	IQUANT	0	RE=0 or CS=1
IESTAB	IQUANT	0	I/E Stability
CASPEED	IQUANT	3	Control Amp Speed
CONVENTION	IQUANT	1	Current Convention
ICHRANGE	IQUANT	2	Ich Range
ICHRANGEMODE	TOGGLE	F	Ich Auto Range
ICHOFFSETENABLE	TOGGLE	T	Ich Offset Enable
ICHOFFSET	QUANT	0	Ich Offset (V)
ICHFILTER	IQUANT	4	Ich Filter
VCHRANGE	IQUANT	2	Vch Range
VCHRANGEMODE	TOGGLE	F	Vch Auto Range
VCHOFFSETENABLE	TOGGLE	T	Vch Offset Enable
VCHOFFSET	QUANT	0	Vch Offset (V)
VCHFILTER	IQUANT	4	Vch Filter
IERANGELOWERLIMIT	IQUANT	4	I/E Range Lower Limit
IERANGEMODE	TOGGLE	F	I/E AutoRange
IERANGE	IQUANT	7	I/E Range
ACHSELECT	IQUANT	0	Ach Select
ACHRANGE	IQUANT	2	Ach Range
ACHOFFSETENABLE	TOGGLE	F	Ach Offset Enable
ACHOFFSET	QUANT	0	Ach Offset (V)
ACHFILTER	IQUANT	1	Ach Filter
SENSECABLEID	IQUANT	14	Sense Cable ID
PWRCABLEID	IQUANT	14	Power Cable ID
DCCALDATE	LABEL	11/25/2025	DC Calibration Date
ACCALDATE	LABEL	9/8/2018	AC Calibration Date
FRAMEWORKVERSION	QUANT	7.07	Framework Version
INSTRUMENTVERSION	LABEL	4.34	Instrument Version
ZCURVE	TABLE
	Pt	Time	Freq	Zreal	Zimag	Zsig	Zmod	Zphz	Idc	Vdc	IERange
	#	s	Hz	ohm	ohm	V	ohm	°	A	V	#
	0	9	1004.464	239.424	-28.1053	1	241.0679	-6.695148	-0.0002058	-1.600025	9
	1	12	800.3049	241.4887	-33.23792	1	243.7654	-7.836812	-0.0002044	-1.600026	9
	2	14	631.0096	244.1195	-39.67437	1	247.3224	-9.231018	-0.0002036	-1.600026	9
	3	17	498.6702	247.2039	-47.29394	1	251.6873	-10.8307	-0.0002033	-1.600025	9
	4	19	397.2458	250.8642	-56.15712	1	257.0729	-12.6179	-0.0002033	-1.600027	9
	5	21	319.6023	255.1103	-66.32813	1	263.5919	-14.5741	-0.0002035	-1.600025	9
	6	24	251.1161	261.0701	-79.90421	1	273.0244	-17.01747	-0.0002039	-1.600026	9
	7	26	200.8929	268.2382	-95.0358	1	284.576	-19.50905	-0.0002041	-1.600025	9
	8	29	158.0056	278.5996	-114.4637	1	301.1971	-22.33549	-0.0002045	-1.600024	9
	9	31	125.558	292.1445	-136.1063	1	322.2939	-24.9802	-0.0002051	-1.600024	9
	10	34	99.734	310.6926	-160.7968	1	349.8364	-27.36352	-0.0002054	-1.600027	9
	11	36	79.44915	335.0868	-186.7396	1	383.6076	-29.13036	-0.0002059	-1.600017	9
	12	38	63.34459	366.8839	-213.3717	1	424.4187	-30.18136	-0.0002065	-1.600013	9
	13	41	49.86702	409.227	-239.0273	1	473.9207	-30.28897	-0.0002072	-1.600015	9
	14	44	38.10976	463.7111	-256.0096	1	529.6876	-28.90259	-0.0002104	-1.600012	9
	15	46	31.25	513.9317	-268.1001	1	579.658	-27.54946	-0.0002095	-1.600013	9
	16	48	24.93351	569.6392	-268.7431	1	629.8505	-25.2569	-0.0002099	-1.600016	9
	17	51	19.94681	623.7518	-259.5915	1	675.6139	-22.59598	-0.0002103	-1.600017	9
	18	53	15.57309	675.7856	-241.6839	1	717.7028	-19.67877	-0.0002105	-1.600018	9
	19	56	12.40079	719.4572	-221.7141	1	752.8451	-17.12766	-0.0002108	-1.600019	9
	20	58	9.91015	749.6243	-191.5496	1	773.7104	-14.33392	-0.0002112	-1.600016	9
	21	61	7.971939	775.3781	-170.0369	1	793.8033	-12.36891	-0.0002119	-1.600017	9
	22	65	6.351626	793.6292	-145.6111	1	806.8766	-10.39671	-0.0002127	-1.600017	9
	23	68	4.970838	809.7759	-122.145	1	818.9361	-8.577719	-0.0002134	-1.600017	9
	24	73	3.942389	821.9083	-103.8594	1	828.4443	-7.20194	-0.0002137	-1.600016	9
	25	77	3.16723	826.3712	-85.10439	1	830.7419	-5.879915	-0.0002152	-1.600015	9
	26	82	2.485419	831.3663	-78.22237	1	835.0381	-5.375075	-0.0002165	-1.600014	9
	27	90	1.971194	837.0347	-63.46227	1	839.437	-4.335754	-0.0002163	-1.600015	9
	28	99	1.605308	840.137	-56.92302	1	842.0632	-3.87612	-0.0002173	-1.600018	9
	29	106	1.260081	845.0508	-47.97345	1	846.4114	-3.249188	-0.000218	-1.600016	9
	30	119	1.001603	844.944	-36.89639	1	845.7491	-2.500361	-0.0002189	-1.600016	9
