EXPLAIN
TAG	EISPOT
TITLE	LABEL	Potentiostatic EIS	Test &Identifier
DATE	LABEL	4/22/2026	Date
TIME	LABEL	13:39:53	Time
NOTES	NOTES	1	&Notes...
	
PSTAT	PSTAT	Rhea	Potentiostat
VDC	POTEN	-1.40000E+000	F	DC &Voltage (V)
FREQINIT	QUANT	1.00000E+003	Initial Fre&q. (Hz)
FREQFINAL	QUANT	1.00000E+000	Final Fre&q. (Hz)
PTSPERDEC	QUANT	1.00000E+001	Points/&decade
VAC	QUANT	1.00000E+001	AC &Voltage (mV rms)
AREA	QUANT	2.80000E-001	&Area (cm^2)
CONDIT	TWOPARAM	F	0.00000E+000	0.00000E+000	Conditionin&g	Time(s)	E(V)
DELAY	TWOPARAM	T	1.00000E+001	0.00000E+000	Init. De&lay	Time(s)	Stab.(mV/s)
SPEED	SELECTOR	2	&Optimize for:
ZGUESS	QUANT	2.86800E+005	E&stimated Z (ohms)
OCVCURVE	TABLE	40
	Pt	T	Vf	Vm	Ach	Over	Temp
	#	s	V vs. Ref.	V	V	bits	deg C
	0	0.25	-2.34546E-001	-2.34546E-001	0.00000E+000	...........	1415.63
	1	0.5	-2.34543E-001	-2.34398E-001	0.00000E+000	...........	1415.63
	2	0.75	-2.34526E-001	-2.34238E-001	0.00000E+000	...........	1415.63
	3	1	-2.34474E-001	-2.34073E-001	0.00000E+000	...........	1415.72
	4	1.25	-2.34378E-001	-2.33905E-001	0.00000E+000	...........	1415.72
	5	1.5	-2.34244E-001	-2.33739E-001	0.00000E+000	...........	1415.72
	6	1.75	-2.34088E-001	-2.33574E-001	0.00000E+000	...........	1415.72
	7	2	-2.33922E-001	-2.33402E-001	0.00000E+000	...........	1415.28
	8	2.25	-2.33754E-001	-2.33238E-001	0.00000E+000	...........	1415.28
	9	2.5	-2.33585E-001	-2.33050E-001	0.00000E+000	...........	1415.28
	10	2.75	-2.33415E-001	-2.32889E-001	0.00000E+000	...........	1415.28
	11	3	-2.33244E-001	-2.32730E-001	0.00000E+000	...........	1415.28
	12	3.25	-2.33074E-001	-2.32545E-001	0.00000E+000	...........	1415.28
	13	3.5	-2.32904E-001	-2.32385E-001	0.00000E+000	...........	1415.28
	14	3.75	-2.32735E-001	-2.32225E-001	0.00000E+000	...........	1415.28
	15	4	-2.32567E-001	-2.32070E-001	0.00000E+000	...........	1415.37
	16	4.25	-2.32402E-001	-2.31916E-001	0.00000E+000	...........	1415.37
	17	4.5	-2.32240E-001	-2.31758E-001	0.00000E+000	...........	1415.37
	18	4.75	-2.32083E-001	-2.31605E-001	0.00000E+000	...........	1415.37
	19	5	-2.31927E-001	-2.31446E-001	0.00000E+000	...........	1415.72
	20	5.25	-2.31771E-001	-2.31288E-001	0.00000E+000	...........	1415.72
	21	5.5	-2.31615E-001	-2.31129E-001	0.00000E+000	...........	1415.72
	22	5.75	-2.31458E-001	-2.30969E-001	0.00000E+000	...........	1415.72
	23	6	-2.31300E-001	-2.30811E-001	0.00000E+000	...........	1415.72
	24	6.25	-2.31141E-001	-2.30652E-001	0.00000E+000	...........	1415.72
	25	6.5	-2.30982E-001	-2.30493E-001	0.00000E+000	...........	1415.72
	26	6.75	-2.30823E-001	-2.30335E-001	0.00000E+000	...........	1415.72
	27	7	-2.30664E-001	-2.30176E-001	0.00000E+000	...........	1415.81
	28	7.25	-2.30506E-001	-2.30017E-001	0.00000E+000	...........	1415.81
	29	7.5	-2.30347E-001	-2.29857E-001	0.00000E+000	...........	1415.81
	30	7.75	-2.30188E-001	-2.29702E-001	0.00000E+000	...........	1415.81
	31	8	-2.30029E-001	-2.29547E-001	0.00000E+000	...........	1415.81
	32	8.25	-2.29872E-001	-2.29392E-001	0.00000E+000	...........	1415.81
	33	8.5	-2.29715E-001	-2.29236E-001	0.00000E+000	...........	1415.81
	34	8.75	-2.29559E-001	-2.29081E-001	0.00000E+000	...........	1415.81
	35	9	-2.29404E-001	-2.28931E-001	0.00000E+000	...........	1415.72
	36	9.25	-2.29249E-001	-2.28785E-001	0.00000E+000	...........	1415.72
	37	9.5	-2.29096E-001	-2.28636E-001	0.00000E+000	...........	1415.72
	38	9.75	-2.28945E-001	-2.28483E-001	0.00000E+000	...........	1415.72
	39	10	-2.28795E-001	-2.28337E-001	0.00000E+000	...........	1415.72
EOC	QUANT	-0.2287951	Open Circuit (V)
PSTATMODEL	IQUANT	64	Pstat Model
PSTATSECTION	LABEL	IFC1010-22099	Pstat Section
PSTATSERIALNO	LABEL	22099	Pstat Serial Number
CTRLMODE	IQUANT	1	Control Mode
ELECTROMETER	IQUANT	0	RE=0 or CS=1
IESTAB	IQUANT	0	I/E Stability
CASPEED	IQUANT	3	Control Amp Speed
CONVENTION	IQUANT	1	Current Convention
ICHRANGE	IQUANT	2	Ich Range
ICHRANGEMODE	TOGGLE	F	Ich Auto Range
ICHOFFSETENABLE	TOGGLE	T	Ich Offset Enable
ICHOFFSET	QUANT	0	Ich Offset (V)
ICHFILTER	IQUANT	4	Ich Filter
VCHRANGE	IQUANT	2	Vch Range
VCHRANGEMODE	TOGGLE	F	Vch Auto Range
VCHOFFSETENABLE	TOGGLE	T	Vch Offset Enable
VCHOFFSET	QUANT	0	Vch Offset (V)
VCHFILTER	IQUANT	4	Vch Filter
IERANGELOWERLIMIT	IQUANT	4	I/E Range Lower Limit
IERANGEMODE	TOGGLE	F	I/E AutoRange
IERANGE	IQUANT	7	I/E Range
ACHSELECT	IQUANT	0	Ach Select
ACHRANGE	IQUANT	2	Ach Range
ACHOFFSETENABLE	TOGGLE	F	Ach Offset Enable
ACHOFFSET	QUANT	0	Ach Offset (V)
ACHFILTER	IQUANT	1	Ach Filter
SENSECABLEID	IQUANT	14	Sense Cable ID
PWRCABLEID	IQUANT	14	Power Cable ID
DCCALDATE	LABEL	11/25/2025	DC Calibration Date
ACCALDATE	LABEL	9/8/2018	AC Calibration Date
FRAMEWORKVERSION	QUANT	7.07	Framework Version
INSTRUMENTVERSION	LABEL	4.34	Instrument Version
ZCURVE	TABLE
	Pt	Time	Freq	Zreal	Zimag	Zsig	Zmod	Zphz	Idc	Vdc	IERange
	#	s	Hz	ohm	ohm	V	ohm	°	A	V	#
	0	7	1004.464	260.6205	-35.85375	1	263.0751	-7.833054	-6.504362E-005	-1.400036	9
	1	10	800.3049	262.4808	-42.93964	1	265.9699	-9.29081	-5.939729E-005	-1.400034	9
	2	12	631.0096	264.5782	-51.98017	1	269.636	-11.11501	-5.521579E-005	-1.400034	9
	3	15	498.6702	267.053	-63.11687	1	274.4104	-13.2976	-5.189935E-005	-1.400034	9
	4	17	397.2458	269.7535	-76.47946	1	280.3856	-15.82889	-4.92185E-005	-1.400031	9
	5	19	319.6023	272.7239	-92.16913	1	287.8775	-18.67307	-4.724524E-005	-1.40003	9
	6	22	251.1161	276.8969	-113.8393	1	299.3849	-22.3488	-4.555671E-005	-1.400033	9
	7	24	200.8929	281.738	-138.8003	1	314.073	-26.2275	-4.414775E-005	-1.40003	9
	8	27	158.0056	288.6275	-172.1826	1	336.0843	-30.81846	-4.296721E-005	-1.40003	9
	9	29	125.558	297.5573	-211.9067	1	365.301	-35.45673	-4.171184E-005	-1.400008	8
	10	32	99.734	309.7698	-260.7022	1	404.874	-40.08396	-4.10369E-005	-1.400007	8
	11	34	79.44915	326.3529	-319.4981	1	456.7114	-44.39191	-4.04717E-005	-1.399997	8
	12	37	63.34459	349.0411	-390.5246	1	523.7739	-48.21045	-3.998275E-005	-1.400001	8
	13	39	49.86702	382.1334	-481.6275	1	614.8098	-51.57077	-3.961729E-005	-1.399999	8
	14	42	38.10976	436.5464	-603.8005	1	745.0824	-54.13316	-3.923891E-005	-1.4	8
	15	44	31.25	490.7836	-710.636	1	863.6389	-55.37004	-3.891617E-005	-1.400003	8
	16	46	24.93351	572.0384	-848.9582	1	1023.698	-56.02743	-3.867425E-005	-1.400001	8
	17	49	19.94681	677.5209	-1002.627	1	1210.081	-55.9513	-3.842581E-005	-1.400002	8
	18	52	15.57309	830.494	-1191.115	1	1452.059	-55.11421	-3.824489E-005	-1.4	8
	19	55	12.40079	1009.838	-1377.743	1	1708.2	-53.75986	-3.804739E-005	-1.400002	8
	20	58	9.91015	1228.463	-1568.256	1	1992.121	-51.92733	-3.795348E-005	-1.400003	8
	21	61	7.971939	1484.206	-1754.909	1	2298.385	-49.77728	-3.78555E-005	-1.400002	8
	22	65	6.351626	1799.367	-1937.458	1	2644.138	-47.11634	-3.782173E-005	-1.400002	8
	23	70	4.970838	2192.548	-2108.362	1	3041.785	-43.87863	-3.783048E-005	-1.400003	8
	24	74	3.942389	2608.912	-2244.142	1	3441.307	-40.70156	-3.772457E-005	-1.400001	8
	25	80	3.16723	3028.71	-2335.703	1	3824.734	-37.63896	-3.766707E-005	-1.400002	8
	26	87	2.485419	3520.914	-2394.487	1	4257.98	-34.21865	-3.76531E-005	-1.400005	8
	27	94	1.971194	3999.594	-2392.588	1	4660.604	-30.88819	-3.750967E-005	-1.400003	8
	28	104	1.605308	4417.619	-2411.448	1	5032.935	-28.62882	-3.748447E-005	-1.400002	8
	29	114	1.260081	4895.544	-2367.389	1	5437.911	-25.8075	-3.756604E-005	-1.400002	8
	30	128	1.001603	5316.041	-2307.785	1	5795.357	-23.4665	-3.773586E-005	-1.400001	8
