EXPLAIN
TAG	EISPOT
TITLE	LABEL	Potentiostatic EIS	Test &Identifier
DATE	LABEL	4/22/2026	Date
TIME	LABEL	12:30:00	Time
NOTES	NOTES	1	&Notes...
	
PSTAT	PSTAT	Rhea	Potentiostat
VDC	POTEN	-1.20000E+000	F	DC &Voltage (V)
FREQINIT	QUANT	1.00000E+003	Initial Fre&q. (Hz)
FREQFINAL	QUANT	1.00000E+000	Final Fre&q. (Hz)
PTSPERDEC	QUANT	1.00000E+001	Points/&decade
VAC	QUANT	1.00000E+001	AC &Voltage (mV rms)
AREA	QUANT	2.80000E-001	&Area (cm^2)
CONDIT	TWOPARAM	F	0.00000E+000	0.00000E+000	Conditionin&g	Time(s)	E(V)
DELAY	TWOPARAM	T	1.00000E+001	0.00000E+000	Init. De&lay	Time(s)	Stab.(mV/s)
SPEED	SELECTOR	2	&Optimize for:
ZGUESS	QUANT	2.86800E+005	E&stimated Z (ohms)
OCVCURVE	TABLE	40
	Pt	T	Vf	Vm	Ach	Over	Temp
	#	s	V vs. Ref.	V	V	bits	deg C
	0	0.25	1.11259E-001	1.11259E-001	0.00000E+000	...........	1414.93
	1	0.5	1.11265E-001	1.11564E-001	0.00000E+000	...........	1414.93
	2	0.75	1.11301E-001	1.11873E-001	0.00000E+000	...........	1414.93
	3	1	1.11405E-001	1.12182E-001	0.00000E+000	...........	1415.02
	4	1.25	1.11594E-001	1.12502E-001	0.00000E+000	...........	1415.02
	5	1.5	1.11855E-001	1.12840E-001	0.00000E+000	...........	1415.02
	6	1.75	1.12157E-001	1.13175E-001	0.00000E+000	...........	1415.02
	7	2	1.12480E-001	1.13487E-001	0.00000E+000	...........	1415.11
	8	2.25	1.12809E-001	1.13808E-001	0.00000E+000	...........	1415.11
	9	2.5	1.13138E-001	1.14134E-001	0.00000E+000	...........	1415.11
	10	2.75	1.13463E-001	1.14453E-001	0.00000E+000	...........	1415.11
	11	3	1.13785E-001	1.14760E-001	0.00000E+000	...........	1415.11
	12	3.25	1.14104E-001	1.15037E-001	0.00000E+000	...........	1415.11
	13	3.5	1.14417E-001	1.15305E-001	0.00000E+000	...........	1415.11
	14	3.75	1.14718E-001	1.15575E-001	0.00000E+000	...........	1415.11
	15	4	1.15007E-001	1.15858E-001	0.00000E+000	...........	1415.11
	16	4.25	1.15286E-001	1.16155E-001	0.00000E+000	...........	1415.11
	17	4.5	1.15564E-001	1.16473E-001	0.00000E+000	...........	1415.11
	18	4.75	1.15849E-001	1.16807E-001	0.00000E+000	...........	1415.11
	19	5	1.16147E-001	1.17142E-001	0.00000E+000	...........	1415.11
	20	5.25	1.16460E-001	1.17480E-001	0.00000E+000	...........	1415.11
	21	5.5	1.16784E-001	1.17815E-001	0.00000E+000	...........	1415.11
	22	5.75	1.17116E-001	1.18152E-001	0.00000E+000	...........	1415.11
	23	6	1.17452E-001	1.18479E-001	0.00000E+000	...........	1415.11
	24	6.25	1.17787E-001	1.18806E-001	0.00000E+000	...........	1415.11
	25	6.5	1.18121E-001	1.19133E-001	0.00000E+000	...........	1415.11
	26	6.75	1.18452E-001	1.19453E-001	0.00000E+000	...........	1415.11
	27	7	1.18780E-001	1.19774E-001	0.00000E+000	...........	1415.11
	28	7.25	1.19105E-001	1.20090E-001	0.00000E+000	...........	1415.11
	29	7.5	1.19427E-001	1.20404E-001	0.00000E+000	...........	1415.11
	30	7.75	1.19747E-001	1.20717E-001	0.00000E+000	...........	1415.11
	31	8	1.20064E-001	1.21025E-001	0.00000E+000	...........	1415.11
	32	8.25	1.20378E-001	1.21330E-001	0.00000E+000	...........	1415.11
	33	8.5	1.20690E-001	1.21630E-001	0.00000E+000	...........	1415.11
	34	8.75	1.20998E-001	1.21929E-001	0.00000E+000	...........	1415.11
	35	9	1.21303E-001	1.22225E-001	0.00000E+000	...........	1415.11
	36	9.25	1.21605E-001	1.22515E-001	0.00000E+000	...........	1415.11
	37	9.5	1.21904E-001	1.22802E-001	0.00000E+000	...........	1415.11
	38	9.75	1.22199E-001	1.23088E-001	0.00000E+000	...........	1415.11
	39	10	1.22490E-001	1.23371E-001	0.00000E+000	...........	1415.11
EOC	QUANT	0.1224901	Open Circuit (V)
PSTATMODEL	IQUANT	64	Pstat Model
PSTATSECTION	LABEL	IFC1010-22099	Pstat Section
PSTATSERIALNO	LABEL	22099	Pstat Serial Number
CTRLMODE	IQUANT	1	Control Mode
ELECTROMETER	IQUANT	0	RE=0 or CS=1
IESTAB	IQUANT	0	I/E Stability
CASPEED	IQUANT	3	Control Amp Speed
CONVENTION	IQUANT	1	Current Convention
ICHRANGE	IQUANT	2	Ich Range
ICHRANGEMODE	TOGGLE	F	Ich Auto Range
ICHOFFSETENABLE	TOGGLE	T	Ich Offset Enable
ICHOFFSET	QUANT	0	Ich Offset (V)
ICHFILTER	IQUANT	4	Ich Filter
VCHRANGE	IQUANT	2	Vch Range
VCHRANGEMODE	TOGGLE	F	Vch Auto Range
VCHOFFSETENABLE	TOGGLE	T	Vch Offset Enable
VCHOFFSET	QUANT	0	Vch Offset (V)
VCHFILTER	IQUANT	4	Vch Filter
IERANGELOWERLIMIT	IQUANT	4	I/E Range Lower Limit
IERANGEMODE	TOGGLE	F	I/E AutoRange
IERANGE	IQUANT	7	I/E Range
ACHSELECT	IQUANT	0	Ach Select
ACHRANGE	IQUANT	2	Ach Range
ACHOFFSETENABLE	TOGGLE	F	Ach Offset Enable
ACHOFFSET	QUANT	0	Ach Offset (V)
ACHFILTER	IQUANT	1	Ach Filter
SENSECABLEID	IQUANT	14	Sense Cable ID
PWRCABLEID	IQUANT	14	Power Cable ID
DCCALDATE	LABEL	11/25/2025	DC Calibration Date
ACCALDATE	LABEL	9/8/2018	AC Calibration Date
FRAMEWORKVERSION	QUANT	7.07	Framework Version
INSTRUMENTVERSION	LABEL	4.34	Instrument Version
ZCURVE	TABLE
	Pt	Time	Freq	Zreal	Zimag	Zsig	Zmod	Zphz	Idc	Vdc	IERange
	#	s	Hz	ohm	ohm	V	ohm	°	A	V	#
	0	7	1004.464	237.189	-68.03355	1	246.7533	-16.00462	-5.39051E-005	-1.199987	9
	1	10	800.3049	241.8626	-78.54803	1	254.2977	-17.99188	-4.912051E-005	-1.199984	9
	2	12	631.0096	247.6694	-91.37765	1	263.9886	-20.25155	-4.565799E-005	-1.199984	9
	3	14	498.6702	254.2941	-106.2573	1	275.6013	-22.67772	-4.309804E-005	-1.199983	9
	4	17	397.2458	260.8768	-123.297	1	288.5461	-25.2966	-4.105881E-005	-1.199981	9
	5	19	319.6023	267.4545	-143.0433	1	303.3039	-28.13931	-3.941246E-005	-1.199983	9
	6	21	251.1161	274.822	-170.4372	1	323.382	-31.80608	-3.761246E-005	-1.199965	8
	7	24	200.8929	281.884	-202.2885	1	346.9571	-35.66436	-3.637151E-005	-1.199963	8
	8	26	158.0056	290.631	-245.7813	1	380.6243	-40.22058	-3.533465E-005	-1.199965	8
	9	28	125.558	300.8646	-298.5202	1	423.8323	-44.77591	-3.440214E-005	-1.199965	8
	10	31	99.734	313.536	-364.8596	1	481.069	-49.32644	-3.370169E-005	-1.19997	8
	11	33	79.44915	330.8723	-446.0213	1	555.3481	-53.43084	-3.300004E-005	-1.199957	8
	12	36	63.34459	353.8572	-546.1434	1	650.7592	-57.05999	-3.244396E-005	-1.199961	8
	13	38	49.86702	388.5605	-676.3906	1	780.0535	-60.12428	-3.191788E-005	-1.199957	8
	14	40	38.10976	444.9146	-862.0292	1	970.074	-62.70062	-3.153288E-005	-1.199959	8
	15	43	31.25	503.5941	-1027.417	1	1144.199	-63.88796	-3.129346E-005	-1.199955	8
	16	46	24.93351	597.1743	-1251.055	1	1386.274	-64.48314	-3.119109E-005	-1.199957	8
	17	48	19.94681	729.4345	-1511.384	1	1678.201	-64.2368	-3.10116E-005	-1.199954	8
	18	50	15.57309	940.1392	-1846.986	1	2072.491	-63.02333	-3.086483E-005	-1.199956	8
	19	53	12.40079	1214.149	-2190.26	1	2504.276	-60.99863	-3.078455E-005	-1.199957	8
	20	56	9.91015	1578.164	-2546.527	1	2995.897	-58.21219	-3.068643E-005	-1.199957	8
	21	59	7.971939	2038.084	-2878.106	1	3526.653	-54.6964	-3.061042E-005	-1.199955	8
	22	63	6.351626	2635.018	-3164.115	1	4117.639	-50.21308	-3.065477E-005	-1.199957	8
	23	68	4.970838	3358.74	-3375.492	1	4761.836	-45.14252	-3.056623E-005	-1.199957	8
	24	73	3.942389	4094.555	-3423.3	1	5337.075	-39.8977	-3.041056E-005	-1.199957	8
	25	78	3.16723	4759.362	-3349.837	1	5820.046	-35.13947	-3.046355E-005	-1.199956	8
	26	85	2.485419	5418.402	-3164.855	1	6274.981	-30.28893	-3.055684E-005	-1.199956	8
	27	92	1.971194	5928.113	-2960.918	1	6626.429	-26.54078	-3.070433E-005	-1.199958	8
	28	102	1.605308	6309.658	-2799.363	1	6902.769	-23.9251	-3.086773E-005	-1.199959	8
	29	112	1.260081	6679.448	-2644.652	1	7183.955	-21.60053	-3.117127E-005	-1.199957	8
	30	126	1.001603	6977.374	-2574.057	1	7437.037	-20.24977	-3.133312E-005	-1.199956	8
