EXPLAIN
TAG	EISPOT
TITLE	LABEL	Potentiostatic EIS	Test &Identifier
DATE	LABEL	4/22/2026	Date
TIME	LABEL	12:09:14	Time
NOTES	NOTES	1	&Notes...
	
PSTAT	PSTAT	Rhea	Potentiostat
VDC	POTEN	-1.40000E+000	F	DC &Voltage (V)
FREQINIT	QUANT	1.00000E+003	Initial Fre&q. (Hz)
FREQFINAL	QUANT	1.00000E+000	Final Fre&q. (Hz)
PTSPERDEC	QUANT	1.00000E+001	Points/&decade
VAC	QUANT	1.00000E+001	AC &Voltage (mV rms)
AREA	QUANT	2.80000E-001	&Area (cm^2)
CONDIT	TWOPARAM	F	0.00000E+000	0.00000E+000	Conditionin&g	Time(s)	E(V)
DELAY	TWOPARAM	T	1.00000E+001	0.00000E+000	Init. De&lay	Time(s)	Stab.(mV/s)
SPEED	SELECTOR	2	&Optimize for:
ZGUESS	QUANT	2.86800E+005	E&stimated Z (ohms)
OCVCURVE	TABLE	40
	Pt	T	Vf	Vm	Ach	Over	Temp
	#	s	V vs. Ref.	V	V	bits	deg C
	0	0.25	-2.34018E-001	-2.34018E-001	0.00000E+000	...........	1410.89
	1	0.5	-2.34010E-001	-2.33565E-001	0.00000E+000	...........	1410.89
	2	0.75	-2.33956E-001	-2.33110E-001	0.00000E+000	...........	1410.89
	3	1	-2.33802E-001	-2.32655E-001	0.00000E+000	...........	1410.89
	4	1.25	-2.33523E-001	-2.32209E-001	0.00000E+000	...........	1411.06
	5	1.5	-2.33142E-001	-2.31761E-001	0.00000E+000	...........	1411.06
	6	1.75	-2.32707E-001	-2.31311E-001	0.00000E+000	...........	1411.06
	7	2	-2.32254E-001	-2.30858E-001	0.00000E+000	...........	1411.06
	8	2.25	-2.31798E-001	-2.30404E-001	0.00000E+000	...........	1411.06
	9	2.5	-2.31345E-001	-2.29962E-001	0.00000E+000	...........	1411.06
	10	2.75	-2.30894E-001	-2.29523E-001	0.00000E+000	...........	1411.06
	11	3	-2.30445E-001	-2.29092E-001	0.00000E+000	...........	1411.06
	12	3.25	-2.30001E-001	-2.28664E-001	0.00000E+000	...........	1411.06
	13	3.5	-2.29562E-001	-2.28232E-001	0.00000E+000	...........	1411.06
	14	3.75	-2.29128E-001	-2.27798E-001	0.00000E+000	...........	1411.06
	15	4	-2.28696E-001	-2.27369E-001	0.00000E+000	...........	1411.06
	16	4.25	-2.28264E-001	-2.26944E-001	0.00000E+000	...........	1411.06
	17	4.5	-2.27834E-001	-2.26519E-001	0.00000E+000	...........	1411.06
	18	4.75	-2.27405E-001	-2.26100E-001	0.00000E+000	...........	1411.06
	19	5	-2.26979E-001	-2.25687E-001	0.00000E+000	...........	1411.06
	20	5.25	-2.26556E-001	-2.25274E-001	0.00000E+000	...........	1411.06
	21	5.5	-2.26136E-001	-2.24866E-001	0.00000E+000	...........	1411.06
	22	5.75	-2.25721E-001	-2.24457E-001	0.00000E+000	...........	1411.06
	23	6	-2.25308E-001	-2.24046E-001	0.00000E+000	...........	1411.06
	24	6.25	-2.24897E-001	-2.23639E-001	0.00000E+000	...........	1411.06
	25	6.5	-2.24488E-001	-2.23234E-001	0.00000E+000	...........	1411.06
	26	6.75	-2.24079E-001	-2.22829E-001	0.00000E+000	...........	1411.06
	27	7	-2.23672E-001	-2.22425E-001	0.00000E+000	...........	1411.06
	28	7.25	-2.23266E-001	-2.22020E-001	0.00000E+000	...........	1411.15
	29	7.5	-2.22861E-001	-2.21622E-001	0.00000E+000	...........	1411.15
	30	7.75	-2.22457E-001	-2.21229E-001	0.00000E+000	...........	1411.15
	31	8	-2.22056E-001	-2.20838E-001	0.00000E+000	...........	1411.15
	32	8.25	-2.21657E-001	-2.20453E-001	0.00000E+000	...........	1411.15
	33	8.5	-2.21262E-001	-2.20063E-001	0.00000E+000	...........	1411.15
	34	8.75	-2.20871E-001	-2.19680E-001	0.00000E+000	...........	1411.15
	35	9	-2.20482E-001	-2.19300E-001	0.00000E+000	...........	1411.15
	36	9.25	-2.20096E-001	-2.18921E-001	0.00000E+000	...........	1411.15
	37	9.5	-2.19712E-001	-2.18541E-001	0.00000E+000	...........	1411.15
	38	9.75	-2.19330E-001	-2.18160E-001	0.00000E+000	...........	1411.15
	39	10	-2.18950E-001	-2.17779E-001	0.00000E+000	...........	1411.15
EOC	QUANT	-0.2189499	Open Circuit (V)
PSTATMODEL	IQUANT	64	Pstat Model
PSTATSECTION	LABEL	IFC1010-22099	Pstat Section
PSTATSERIALNO	LABEL	22099	Pstat Serial Number
CTRLMODE	IQUANT	1	Control Mode
ELECTROMETER	IQUANT	0	RE=0 or CS=1
IESTAB	IQUANT	0	I/E Stability
CASPEED	IQUANT	3	Control Amp Speed
CONVENTION	IQUANT	1	Current Convention
ICHRANGE	IQUANT	2	Ich Range
ICHRANGEMODE	TOGGLE	F	Ich Auto Range
ICHOFFSETENABLE	TOGGLE	T	Ich Offset Enable
ICHOFFSET	QUANT	0	Ich Offset (V)
ICHFILTER	IQUANT	4	Ich Filter
VCHRANGE	IQUANT	2	Vch Range
VCHRANGEMODE	TOGGLE	F	Vch Auto Range
VCHOFFSETENABLE	TOGGLE	T	Vch Offset Enable
VCHOFFSET	QUANT	0	Vch Offset (V)
VCHFILTER	IQUANT	4	Vch Filter
IERANGELOWERLIMIT	IQUANT	4	I/E Range Lower Limit
IERANGEMODE	TOGGLE	F	I/E AutoRange
IERANGE	IQUANT	7	I/E Range
ACHSELECT	IQUANT	0	Ach Select
ACHRANGE	IQUANT	2	Ach Range
ACHOFFSETENABLE	TOGGLE	F	Ach Offset Enable
ACHOFFSET	QUANT	0	Ach Offset (V)
ACHFILTER	IQUANT	1	Ach Filter
SENSECABLEID	IQUANT	14	Sense Cable ID
PWRCABLEID	IQUANT	14	Power Cable ID
DCCALDATE	LABEL	11/25/2025	DC Calibration Date
ACCALDATE	LABEL	9/8/2018	AC Calibration Date
FRAMEWORKVERSION	QUANT	7.07	Framework Version
INSTRUMENTVERSION	LABEL	4.34	Instrument Version
ZCURVE	TABLE
	Pt	Time	Freq	Zreal	Zimag	Zsig	Zmod	Zphz	Idc	Vdc	IERange
	#	s	Hz	ohm	ohm	V	ohm	°	A	V	#
	0	8	1004.464	355.3588	-45.73771	1	358.2901	-7.334135	-4.138357E-005	-1.399878	8
	1	10	800.3049	357.3096	-54.38024	1	361.4241	-8.653645	-3.702256E-005	-1.39988	8
	2	13	631.0096	359.6269	-65.68792	1	365.5768	-10.35129	-3.46399E-005	-1.399883	8
	3	15	498.6702	361.68	-79.6192	1	370.3399	-12.41491	-3.311134E-005	-1.399878	8
	4	18	397.2458	365.3235	-96.5442	1	377.8652	-14.80316	-3.205169E-005	-1.399885	8
	5	20	319.6023	368.842	-116.4453	1	386.7867	-17.52117	-3.133253E-005	-1.399882	8
	6	22	251.1161	373.7842	-144.1043	1	400.6004	-21.08305	-3.076591E-005	-1.399884	8
	7	25	200.8929	379.7236	-175.9787	1	418.5194	-24.86485	-3.038299E-005	-1.399885	8
	8	27	158.0056	387.3179	-219.1363	1	445.0122	-29.50027	-3.004025E-005	-1.399885	8
	9	30	125.558	396.6959	-270.6169	1	480.2095	-34.30092	-2.98177E-005	-1.399886	8
	10	32	99.734	409.3134	-334.469	1	528.5896	-39.25385	-2.971593E-005	-1.399888	8
	11	35	79.44915	426.7148	-412.6919	1	593.6331	-44.04292	-2.966769E-005	-1.399873	8
	12	37	63.34459	451.0523	-508.2434	1	679.5289	-48.41181	-2.948726E-005	-1.399873	8
	13	39	49.86702	487.687	-630.9786	1	797.4789	-52.29935	-2.945096E-005	-1.399875	8
	14	42	38.10976	548.8431	-803.9932	1	973.465	-55.68074	-2.937212E-005	-1.399875	8
	15	44	31.25	614.5693	-957.371	1	1137.653	-57.30219	-2.941869E-005	-1.399878	8
	16	46	24.93351	718.5289	-1161.276	1	1365.594	-58.25323	-2.929807E-005	-1.399876	8
	17	49	19.94681	863.7252	-1392.067	1	1638.253	-58.18196	-2.945028E-005	-1.399875	8
	18	52	15.57309	1090.98	-1675.517	1	1999.398	-56.93063	-2.958644E-005	-1.399875	8
	19	55	12.40079	1376.344	-1951.458	1	2387.994	-54.80506	-2.964177E-005	-1.399881	8
	20	58	9.91015	1743.214	-2211.436	1	2815.892	-51.75226	-2.965291E-005	-1.39988	8
	21	61	7.971939	2173.275	-2429.535	1	3259.719	-48.18665	-2.955725E-005	-1.399882	8
	22	65	6.351626	2682.749	-2582.575	1	3723.82	-43.91006	-2.956419E-005	-1.399881	8
	23	70	4.970838	3264.394	-2650.294	1	4204.797	-39.07243	-2.951947E-005	-1.399884	8
	24	75	3.942389	3787.906	-2623.758	1	4607.855	-34.70907	-2.949036E-005	-1.399885	8
	25	80	3.16723	4239.657	-2568.393	1	4956.948	-31.20757	-2.947906E-005	-1.399884	8
	26	87	2.485419	4692.475	-2475.535	1	5305.431	-27.81408	-2.944357E-005	-1.399882	8
	27	94	1.971194	5060.419	-2441.301	1	5618.522	-25.75408	-2.940097E-005	-1.399885	8
	28	104	1.605308	5384.862	-2458.905	1	5919.709	-24.543	-2.93261E-005	-1.399885	8
	29	114	1.260081	5767.831	-2515.707	1	6292.587	-23.56499	-2.919426E-005	-1.399886	8
	30	128	1.001603	6144.991	-2607.667	1	6675.391	-22.99426	-2.913238E-005	-1.399888	8
