EXPLAIN
TAG	EISPOT
TITLE	LABEL	Potentiostatic EIS	Test &Identifier
DATE	LABEL	4/22/2026	Date
TIME	LABEL	12:33:11	Time
NOTES	NOTES	1	&Notes...
	
PSTAT	PSTAT	Rhea	Potentiostat
VDC	POTEN	-1.40000E+000	F	DC &Voltage (V)
FREQINIT	QUANT	1.00000E+003	Initial Fre&q. (Hz)
FREQFINAL	QUANT	1.00000E+000	Final Fre&q. (Hz)
PTSPERDEC	QUANT	1.00000E+001	Points/&decade
VAC	QUANT	1.00000E+001	AC &Voltage (mV rms)
AREA	QUANT	2.80000E-001	&Area (cm^2)
CONDIT	TWOPARAM	F	0.00000E+000	0.00000E+000	Conditionin&g	Time(s)	E(V)
DELAY	TWOPARAM	T	1.00000E+001	0.00000E+000	Init. De&lay	Time(s)	Stab.(mV/s)
SPEED	SELECTOR	2	&Optimize for:
ZGUESS	QUANT	2.86800E+005	E&stimated Z (ohms)
OCVCURVE	TABLE	40
	Pt	T	Vf	Vm	Ach	Over	Temp
	#	s	V vs. Ref.	V	V	bits	deg C
	0	0.25	-1.68446E-001	-1.68446E-001	0.00000E+000	...........	1415.28
	1	0.5	-1.68440E-001	-1.68123E-001	0.00000E+000	...........	1415.28
	2	0.75	-1.68401E-001	-1.67799E-001	0.00000E+000	...........	1414.58
	3	1	-1.68292E-001	-1.67479E-001	0.00000E+000	...........	1414.58
	4	1.25	-1.68093E-001	-1.67154E-001	0.00000E+000	...........	1414.58
	5	1.5	-1.67822E-001	-1.66840E-001	0.00000E+000	...........	1414.58
	6	1.75	-1.67513E-001	-1.66524E-001	0.00000E+000	...........	1414.75
	7	2	-1.67191E-001	-1.66213E-001	0.00000E+000	...........	1414.75
	8	2.25	-1.66869E-001	-1.65902E-001	0.00000E+000	...........	1414.75
	9	2.5	-1.66552E-001	-1.65594E-001	0.00000E+000	...........	1414.75
	10	2.75	-1.66238E-001	-1.65290E-001	0.00000E+000	...........	1414.93
	11	3	-1.65928E-001	-1.64989E-001	0.00000E+000	...........	1414.93
	12	3.25	-1.65620E-001	-1.64687E-001	0.00000E+000	...........	1414.93
	13	3.5	-1.65315E-001	-1.64387E-001	0.00000E+000	...........	1414.93
	14	3.75	-1.65012E-001	-1.64085E-001	0.00000E+000	...........	1415.02
	15	4	-1.64711E-001	-1.63796E-001	0.00000E+000	...........	1415.02
	16	4.25	-1.64411E-001	-1.63504E-001	0.00000E+000	...........	1415.02
	17	4.5	-1.64114E-001	-1.63214E-001	0.00000E+000	...........	1415.02
	18	4.75	-1.63819E-001	-1.62925E-001	0.00000E+000	...........	1414.93
	19	5	-1.63527E-001	-1.62640E-001	0.00000E+000	...........	1414.93
	20	5.25	-1.63238E-001	-1.62361E-001	0.00000E+000	...........	1414.93
	21	5.5	-1.62950E-001	-1.62077E-001	0.00000E+000	...........	1414.93
	22	5.75	-1.62665E-001	-1.61800E-001	0.00000E+000	...........	1414.75
	23	6	-1.62382E-001	-1.61521E-001	0.00000E+000	...........	1414.75
	24	6.25	-1.62100E-001	-1.61197E-001	0.00000E+000	...........	1414.75
	25	6.5	-1.61816E-001	-1.60914E-001	0.00000E+000	...........	1414.75
	26	6.75	-1.61527E-001	-1.60638E-001	0.00000E+000	...........	1414.84
	27	7	-1.61235E-001	-1.60365E-001	0.00000E+000	...........	1414.84
	28	7.25	-1.60946E-001	-1.60092E-001	0.00000E+000	...........	1414.84
	29	7.5	-1.60664E-001	-1.59823E-001	0.00000E+000	...........	1414.84
	30	7.75	-1.60387E-001	-1.59555E-001	0.00000E+000	...........	1414.93
	31	8	-1.60115E-001	-1.59293E-001	0.00000E+000	...........	1414.93
	32	8.25	-1.59845E-001	-1.59028E-001	0.00000E+000	...........	1414.93
	33	8.5	-1.59578E-001	-1.58768E-001	0.00000E+000	...........	1414.93
	34	8.75	-1.59313E-001	-1.58505E-001	0.00000E+000	...........	1414.49
	35	9	-1.59050E-001	-1.58248E-001	0.00000E+000	...........	1414.49
	36	9.25	-1.58788E-001	-1.57993E-001	0.00000E+000	...........	1414.49
	37	9.5	-1.58528E-001	-1.57742E-001	0.00000E+000	...........	1414.49
	38	9.75	-1.58270E-001	-1.57482E-001	0.00000E+000	...........	1414.75
	39	10	-1.58014E-001	-1.57233E-001	0.00000E+000	...........	1414.75
EOC	QUANT	-0.1580139	Open Circuit (V)
PSTATMODEL	IQUANT	64	Pstat Model
PSTATSECTION	LABEL	IFC1010-22099	Pstat Section
PSTATSERIALNO	LABEL	22099	Pstat Serial Number
CTRLMODE	IQUANT	1	Control Mode
ELECTROMETER	IQUANT	0	RE=0 or CS=1
IESTAB	IQUANT	0	I/E Stability
CASPEED	IQUANT	3	Control Amp Speed
CONVENTION	IQUANT	1	Current Convention
ICHRANGE	IQUANT	2	Ich Range
ICHRANGEMODE	TOGGLE	F	Ich Auto Range
ICHOFFSETENABLE	TOGGLE	T	Ich Offset Enable
ICHOFFSET	QUANT	0	Ich Offset (V)
ICHFILTER	IQUANT	4	Ich Filter
VCHRANGE	IQUANT	2	Vch Range
VCHRANGEMODE	TOGGLE	F	Vch Auto Range
VCHOFFSETENABLE	TOGGLE	T	Vch Offset Enable
VCHOFFSET	QUANT	0	Vch Offset (V)
VCHFILTER	IQUANT	4	Vch Filter
IERANGELOWERLIMIT	IQUANT	4	I/E Range Lower Limit
IERANGEMODE	TOGGLE	F	I/E AutoRange
IERANGE	IQUANT	7	I/E Range
ACHSELECT	IQUANT	0	Ach Select
ACHRANGE	IQUANT	2	Ach Range
ACHOFFSETENABLE	TOGGLE	F	Ach Offset Enable
ACHOFFSET	QUANT	0	Ach Offset (V)
ACHFILTER	IQUANT	1	Ach Filter
SENSECABLEID	IQUANT	14	Sense Cable ID
PWRCABLEID	IQUANT	14	Power Cable ID
DCCALDATE	LABEL	11/25/2025	DC Calibration Date
ACCALDATE	LABEL	9/8/2018	AC Calibration Date
FRAMEWORKVERSION	QUANT	7.07	Framework Version
INSTRUMENTVERSION	LABEL	4.34	Instrument Version
ZCURVE	TABLE
	Pt	Time	Freq	Zreal	Zimag	Zsig	Zmod	Zphz	Idc	Vdc	IERange
	#	s	Hz	ohm	ohm	V	ohm	°	A	V	#
	0	8	1004.464	223.3213	-52.38393	1	229.3828	-13.20107	-5.689287E-005	-1.400007	9
	1	10	800.3049	227.5913	-61.93021	1	235.8668	-15.22228	-5.220485E-005	-1.400009	9
	2	12	631.0096	233.092	-73.43343	1	244.3856	-17.48654	-4.907094E-005	-1.400005	9
	3	15	498.6702	239.5815	-86.57162	1	254.7429	-19.86708	-4.700381E-005	-1.400005	9
	4	17	397.2458	246.4211	-101.3625	1	266.4539	-22.35925	-4.556162E-005	-1.400004	9
	5	19	319.6023	253.5309	-117.98	1	279.6376	-24.95479	-4.454246E-005	-1.400004	9
	6	22	251.1161	262.1743	-140.1442	1	297.2806	-28.12655	-4.376657E-005	-1.400003	9
	7	24	200.8929	271.0406	-165.3432	1	317.4923	-31.38449	-4.323573E-005	-1.400005	9
	8	27	158.0056	281.9944	-199.0577	1	345.1736	-35.21799	-4.250677E-005	-1.399982	8
	9	29	125.558	294.6126	-239.1427	1	379.4546	-39.0669	-4.213065E-005	-1.399979	8
	10	32	99.734	310.6925	-288.6809	1	424.1067	-42.89679	-4.183857E-005	-1.399982	8
	11	34	79.44915	331.2134	-348.9333	1	481.0995	-46.49239	-4.167164E-005	-1.399971	8
	12	36	63.34459	358.9639	-421.5912	1	553.7095	-49.58727	-4.147673E-005	-1.399974	8
	13	39	49.86702	399.5836	-514.8829	1	651.745	-52.18614	-4.137654E-005	-1.39997	8
	14	41	38.10976	463.5629	-639.4227	1	789.7797	-54.05898	-4.121255E-005	-1.399971	8
	15	44	31.25	527.8228	-746.909	1	914.5873	-54.75206	-4.108956E-005	-1.399968	8
	16	46	24.93351	624.5237	-883.7537	1	1082.151	-54.75223	-4.096181E-005	-1.399972	8
	17	49	19.94681	750.1481	-1031.162	1	1275.154	-53.96492	-4.091501E-005	-1.399969	8
	18	51	15.57309	931.9911	-1200.78	1	1520.027	-52.18301	-4.089229E-005	-1.399971	8
	19	55	12.40079	1140.248	-1355.542	1	1771.344	-49.9303	-4.080702E-005	-1.399972	8
	20	58	9.91015	1383.348	-1493.112	1	2035.444	-47.18532	-4.081625E-005	-1.399971	8
	21	61	7.971939	1647.908	-1605.688	1	2300.833	-44.25655	-4.078368E-005	-1.399972	8
	22	65	6.351626	1942.553	-1694.859	1	2577.995	-41.10439	-4.077847E-005	-1.39997	8
	23	69	4.970838	2265.577	-1756.028	1	2866.439	-37.77893	-4.084782E-005	-1.399971	8
	24	74	3.942389	2567.569	-1799.548	1	3135.407	-35.0257	-4.090556E-005	-1.399972	8
	25	80	3.16723	2846.573	-1836.838	1	3387.765	-32.83336	-4.103905E-005	-1.399971	8
	26	86	2.485419	3146.479	-1882.123	1	3666.431	-30.88651	-4.112885E-005	-1.399973	8
	27	94	1.971194	3430.759	-1950.188	1	3946.307	-29.61572	-4.117252E-005	-1.399971	8
	28	103	1.605308	3688.734	-2031.772	1	4211.277	-28.84618	-4.128856E-005	-1.39997	8
	29	114	1.260081	4005.335	-2152.243	1	4546.961	-28.2511	-4.143023E-005	-1.399974	8
	30	127	1.001603	4312.901	-2277.025	1	4877.085	-27.83212	-4.166368E-005	-1.399975	8
