EXPLAIN
TAG	EISPOT
TITLE	LABEL	Potentiostatic EIS	Test &Identifier
DATE	LABEL	4/30/2026	Date
TIME	LABEL	15:38:24	Time
NOTES	NOTES	1	&Notes...
	
PSTAT	PSTAT	Rhea	Potentiostat
VDC	POTEN	-1.60000E+000	F	DC &Voltage (V)
FREQINIT	QUANT	1.00000E+003	Initial Fre&q. (Hz)
FREQFINAL	QUANT	1.00000E+000	Final Fre&q. (Hz)
PTSPERDEC	QUANT	1.00000E+001	Points/&decade
VAC	QUANT	1.00000E+001	AC &Voltage (mV rms)
AREA	QUANT	2.80000E-001	&Area (cm^2)
CONDIT	TWOPARAM	F	0.00000E+000	0.00000E+000	Conditionin&g	Time(s)	E(V)
DELAY	TWOPARAM	T	1.00000E+001	0.00000E+000	Init. De&lay	Time(s)	Stab.(mV/s)
SPEED	SELECTOR	2	&Optimize for:
ZGUESS	QUANT	2.86800E+005	E&stimated Z (ohms)
OCVCURVE	TABLE	40
	Pt	T	Vf	Vm	Ach	Over	Temp
	#	s	V vs. Ref.	V	V	bits	deg C
	0	0.25	-5.09536E-001	-5.09536E-001	0.00000E+000	...........	1416.51
	1	0.5	-5.09471E-001	-5.06130E-001	0.00000E+000	...........	1415.99
	2	0.75	-5.09044E-001	-5.01462E-001	0.00000E+000	...........	1415.99
	3	1	-5.07723E-001	-4.95856E-001	0.00000E+000	...........	1415.99
	4	1.25	-5.05091E-001	-4.90609E-001	0.00000E+000	...........	1415.99
	5	1.5	-5.01197E-001	-4.86451E-001	0.00000E+000	...........	1415.99
	6	1.75	-4.96527E-001	-4.82014E-001	0.00000E+000	...........	1415.99
	7	2	-4.91657E-001	-4.77661E-001	0.00000E+000	...........	1415.99
	8	2.25	-4.86927E-001	-4.73280E-001	0.00000E+000	...........	1415.99
	9	2.5	-4.82382E-001	-4.68489E-001	0.00000E+000	...........	1415.55
	10	2.75	-4.77905E-001	-4.63116E-001	0.00000E+000	...........	1415.55
	11	3	-4.73299E-001	-4.56486E-001	0.00000E+000	...........	1415.55
	12	3.25	-4.68325E-001	-4.49519E-001	0.00000E+000	...........	1415.55
	13	3.5	-4.62889E-001	-4.48109E-001	0.00000E+000	...........	1415.72
	14	3.75	-4.57395E-001	-4.46699E-001	0.00000E+000	...........	1415.72
	15	4	-4.52606E-001	-4.42401E-001	0.00000E+000	...........	1415.72
	16	4.25	-4.48827E-001	-4.38616E-001	0.00000E+000	...........	1415.72
	17	4.5	-4.45631E-001	-4.36120E-001	0.00000E+000	...........	1415.55
	18	4.75	-4.42520E-001	-4.32923E-001	0.00000E+000	...........	1415.55
	19	5	-4.39386E-001	-4.30509E-001	0.00000E+000	...........	1415.55
	20	5.25	-4.36325E-001	-4.27409E-001	0.00000E+000	...........	1415.55
	21	5.5	-4.33381E-001	-4.24529E-001	0.00000E+000	...........	1415.55
	22	5.75	-4.30471E-001	-4.19747E-001	0.00000E+000	...........	1415.55
	23	6	-4.27435E-001	-4.17798E-001	0.00000E+000	...........	1415.55
	24	6.25	-4.24250E-001	-4.15930E-001	0.00000E+000	...........	1415.55
	25	6.5	-4.21139E-001	-4.12876E-001	0.00000E+000	...........	1415.55
	26	6.75	-4.18306E-001	-4.10631E-001	0.00000E+000	...........	1415.55
	27	7	-4.15699E-001	-4.07389E-001	0.00000E+000	...........	1415.55
	28	7.25	-4.13138E-001	-4.04883E-001	0.00000E+000	...........	1415.55
	29	7.5	-4.10518E-001	-4.02690E-001	0.00000E+000	...........	1415.63
	30	7.75	-4.07880E-001	-4.00428E-001	0.00000E+000	...........	1415.63
	31	8	-4.05307E-001	-3.97123E-001	0.00000E+000	...........	1415.63
	32	8.25	-4.02645E-001	-3.87534E-001	0.00000E+000	...........	1415.63
	33	8.5	-3.99432E-001	-3.88402E-001	0.00000E+000	...........	1415.99
	34	8.75	-3.95611E-001	-3.88260E-001	0.00000E+000	...........	1415.99
	35	9	-3.92013E-001	-3.87352E-001	0.00000E+000	...........	1415.99
	36	9.25	-3.89486E-001	-3.86272E-001	0.00000E+000	...........	1415.99
	37	9.5	-3.88002E-001	-3.84482E-001	0.00000E+000	...........	1416.07
	38	9.75	-3.86846E-001	-3.76640E-001	0.00000E+000	...........	1416.07
	39	10	-3.85127E-001	-3.74633E-001	0.00000E+000	...........	1416.07
EOC	QUANT	-0.3851268	Open Circuit (V)
PSTATMODEL	IQUANT	64	Pstat Model
PSTATSECTION	LABEL	IFC1010-22099	Pstat Section
PSTATSERIALNO	LABEL	22099	Pstat Serial Number
CTRLMODE	IQUANT	1	Control Mode
ELECTROMETER	IQUANT	0	RE=0 or CS=1
IESTAB	IQUANT	0	I/E Stability
CASPEED	IQUANT	3	Control Amp Speed
CONVENTION	IQUANT	1	Current Convention
ICHRANGE	IQUANT	2	Ich Range
ICHRANGEMODE	TOGGLE	F	Ich Auto Range
ICHOFFSETENABLE	TOGGLE	T	Ich Offset Enable
ICHOFFSET	QUANT	0	Ich Offset (V)
ICHFILTER	IQUANT	4	Ich Filter
VCHRANGE	IQUANT	2	Vch Range
VCHRANGEMODE	TOGGLE	F	Vch Auto Range
VCHOFFSETENABLE	TOGGLE	T	Vch Offset Enable
VCHOFFSET	QUANT	0	Vch Offset (V)
VCHFILTER	IQUANT	4	Vch Filter
IERANGELOWERLIMIT	IQUANT	4	I/E Range Lower Limit
IERANGEMODE	TOGGLE	F	I/E AutoRange
IERANGE	IQUANT	7	I/E Range
ACHSELECT	IQUANT	0	Ach Select
ACHRANGE	IQUANT	2	Ach Range
ACHOFFSETENABLE	TOGGLE	F	Ach Offset Enable
ACHOFFSET	QUANT	0	Ach Offset (V)
ACHFILTER	IQUANT	1	Ach Filter
SENSECABLEID	IQUANT	14	Sense Cable ID
PWRCABLEID	IQUANT	14	Power Cable ID
DCCALDATE	LABEL	11/25/2025	DC Calibration Date
ACCALDATE	LABEL	9/8/2018	AC Calibration Date
FRAMEWORKVERSION	QUANT	7.07	Framework Version
INSTRUMENTVERSION	LABEL	4.34	Instrument Version
ZCURVE	TABLE
	Pt	Time	Freq	Zreal	Zimag	Zsig	Zmod	Zphz	Idc	Vdc	IERange
	#	s	Hz	ohm	ohm	V	ohm	°	A	V	#
	0	6	1004.464	97.2874	-26.48174	1	100.8272	-15.22705	-5.487844E-005	-1.600068	9
	1	8	800.3049	98.1675	-31.79736	1	103.1888	-17.94761	-5.456975E-005	-1.600068	9
	2	11	631.0096	99.3578	-38.80658	1	106.6673	-21.33433	-5.513379E-005	-1.600066	9
	3	13	498.6702	100.7306	-47.56659	1	111.3967	-25.27744	-5.600174E-005	-1.600067	9
	4	16	397.2458	102.4065	-58.11026	1	117.745	-29.57262	-5.732525E-005	-1.600063	9
	5	18	319.6023	104.3776	-70.44193	1	125.9236	-34.01446	-5.910339E-005	-1.600062	9
	6	21	251.1161	107.4278	-87.57233	1	138.5988	-39.18603	-6.034861E-005	-1.600067	9
	7	23	200.8929	111.4303	-106.9599	1	154.4576	-43.82733	-6.203217E-005	-1.600065	9
	8	25	158.0056	117.4082	-132.5588	1	177.0777	-48.46848	-6.374418E-005	-1.600067	9
	9	28	125.558	125.5506	-162.3748	1	205.2524	-52.28828	-6.571874E-005	-1.600065	9
	10	30	99.734	137.5202	-198.5619	1	241.5339	-55.29425	-6.725726E-005	-1.600067	9
	11	33	79.44915	154.5964	-241.1252	1	286.4287	-57.33422	-6.88437E-005	-1.600057	9
	12	35	63.34459	178.7634	-290.7724	1	341.3282	-58.4173	-7.04306E-005	-1.600054	9
	13	37	49.86702	216.0037	-350.5587	1	411.7633	-58.35988	-7.214881E-005	-1.600055	9
	14	40	38.10976	275.6953	-425.5211	1	507.0268	-57.06078	-7.387345E-005	-1.600054	9
	15	42	31.25	336.7078	-480.1198	1	586.4189	-54.95803	-7.556236E-005	-1.600057	9
	16	45	24.93351	424.7711	-537.6896	1	685.2304	-51.69151	-7.72003E-005	-1.600057	9
	17	47	19.94681	530.575	-579.9417	1	786.0294	-47.54534	-7.892249E-005	-1.600055	9
	18	50	15.57309	662.9393	-600.3024	1	894.3442	-42.16136	-8.064319E-005	-1.600055	9
	19	53	12.40079	780.3009	-590.7018	1	978.672	-37.12638	-8.26625E-005	-1.600052	9
	20	56	9.91015	893.2626	-544.4121	1	1046.089	-31.36084	-8.45012E-005	-1.600054	9
	21	60	7.971939	975.797	-484.1361	1	1089.297	-26.38804	-8.636423E-005	-1.600054	9
	22	64	6.351626	1035.444	-411.9627	1	1114.386	-21.69568	-8.828995E-005	-1.600052	9
	23	68	4.970838	1071.911	-334.6206	1	1122.927	-17.33689	-9.041121E-005	-1.600053	9
	24	73	3.942389	1081.305	-267.9928	1	1114.02	-13.91981	-9.273832E-005	-1.600054	9
	25	79	3.16723	1074.131	-213.7545	1	1095.193	-11.25496	-0.0000951	-1.600052	9
	26	85	2.485419	1058.657	-168.4616	1	1071.976	-9.041539	-0.0000977	-1.600055	9
	27	93	1.971194	1032.374	-132.5411	1	1040.847	-7.315887	-0.0001005	-1.600053	9
	28	102	1.605308	999.635	-106.1017	1	1005.25	-6.058715	-0.0001036	-1.600052	9
	29	113	1.260081	968.509	-84.14753	1	972.158	-4.965591	-0.0001065	-1.60005	9
	30	126	1.001603	944.3566	-69.51559	1	946.9117	-4.21004	-0.0001089	-1.600051	9
