EXPLAIN
TAG	EISPOT
TITLE	LABEL	Potentiostatic EIS	Test &Identifier
DATE	LABEL	4/30/2026	Date
TIME	LABEL	15:31:25	Time
NOTES	NOTES	1	&Notes...
	
PSTAT	PSTAT	Rhea	Potentiostat
VDC	POTEN	-1.60000E+000	F	DC &Voltage (V)
FREQINIT	QUANT	1.00000E+003	Initial Fre&q. (Hz)
FREQFINAL	QUANT	1.00000E+000	Final Fre&q. (Hz)
PTSPERDEC	QUANT	1.00000E+001	Points/&decade
VAC	QUANT	1.00000E+001	AC &Voltage (mV rms)
AREA	QUANT	2.80000E-001	&Area (cm^2)
CONDIT	TWOPARAM	F	0.00000E+000	0.00000E+000	Conditionin&g	Time(s)	E(V)
DELAY	TWOPARAM	T	1.00000E+001	0.00000E+000	Init. De&lay	Time(s)	Stab.(mV/s)
SPEED	SELECTOR	2	&Optimize for:
ZGUESS	QUANT	2.86800E+005	E&stimated Z (ohms)
OCVCURVE	TABLE	40
	Pt	T	Vf	Vm	Ach	Over	Temp
	#	s	V vs. Ref.	V	V	bits	deg C
	0	0.25	-6.50291E-002	-6.50291E-002	0.00000E+000	...........	1415.90
	1	0.5	-6.50348E-002	-6.53298E-002	0.00000E+000	...........	1415.90
	2	0.75	-6.50702E-002	-6.56218E-002	0.00000E+000	...........	1415.90
	3	1	-6.51710E-002	-6.59085E-002	0.00000E+000	...........	1415.90
	4	1.25	-6.53527E-002	-6.61893E-002	0.00000E+000	...........	1416.07
	5	1.5	-6.55974E-002	-6.64654E-002	0.00000E+000	...........	1416.07
	6	1.75	-6.58735E-002	-6.67394E-002	0.00000E+000	...........	1416.07
	7	2	-6.61575E-002	-6.70058E-002	0.00000E+000	...........	1416.07
	8	2.25	-6.64383E-002	-6.72656E-002	0.00000E+000	...........	1416.07
	9	2.5	-6.67128E-002	-6.75267E-002	0.00000E+000	...........	1416.07
	10	2.75	-6.69810E-002	-6.77810E-002	0.00000E+000	...........	1416.07
	11	3	-6.72442E-002	-6.80315E-002	0.00000E+000	...........	1416.07
	12	3.25	-6.75031E-002	-6.82755E-002	0.00000E+000	...........	1416.07
	13	3.5	-6.77577E-002	-6.85147E-002	0.00000E+000	...........	1416.07
	14	3.75	-6.80076E-002	-6.87491E-002	0.00000E+000	...........	1416.07
	15	4	-6.82526E-002	-6.89810E-002	0.00000E+000	...........	1416.07
	16	4.25	-6.84928E-002	-6.92119E-002	0.00000E+000	...........	1416.07
	17	4.5	-6.87289E-002	-6.94372E-002	0.00000E+000	...........	1416.07
	18	4.75	-6.89615E-002	-6.96588E-002	0.00000E+000	...........	1416.07
	19	5	-6.91908E-002	-6.98765E-002	0.00000E+000	...........	1416.07
	20	5.25	-6.94166E-002	-7.00916E-002	0.00000E+000	...........	1416.07
	21	5.5	-6.96389E-002	-7.03087E-002	0.00000E+000	...........	1416.07
	22	5.75	-6.98581E-002	-7.05217E-002	0.00000E+000	...........	1416.07
	23	6	-7.00750E-002	-7.07319E-002	0.00000E+000	...........	1416.07
	24	6.25	-7.02900E-002	-7.09398E-002	0.00000E+000	...........	1416.07
	25	6.5	-7.05030E-002	-7.11455E-002	0.00000E+000	...........	1416.07
	26	6.75	-7.07137E-002	-7.13525E-002	0.00000E+000	...........	1416.07
	27	7	-7.09224E-002	-7.15552E-002	0.00000E+000	...........	1416.07
	28	7.25	-7.11293E-002	-7.17603E-002	0.00000E+000	...........	1415.99
	29	7.5	-7.13350E-002	-7.19603E-002	0.00000E+000	...........	1415.99
	30	7.75	-7.15393E-002	-7.21603E-002	0.00000E+000	...........	1415.99
	31	8	-7.17423E-002	-7.23572E-002	0.00000E+000	...........	1415.99
	32	8.25	-7.19435E-002	-7.25502E-002	0.00000E+000	...........	1416.07
	33	8.5	-7.21428E-002	-7.27452E-002	0.00000E+000	...........	1416.07
	34	8.75	-7.23399E-002	-7.29372E-002	0.00000E+000	...........	1416.07
	35	9	-7.25351E-002	-7.31254E-002	0.00000E+000	...........	1416.07
	36	9.25	-7.27286E-002	-7.33179E-002	0.00000E+000	...........	1416.07
	37	9.5	-7.29207E-002	-7.35035E-002	0.00000E+000	...........	1416.07
	38	9.75	-7.31112E-002	-7.36865E-002	0.00000E+000	...........	1416.07
	39	10	-7.33001E-002	-7.38686E-002	0.00000E+000	...........	1416.07
EOC	QUANT	-0.0733001	Open Circuit (V)
PSTATMODEL	IQUANT	64	Pstat Model
PSTATSECTION	LABEL	IFC1010-22099	Pstat Section
PSTATSERIALNO	LABEL	22099	Pstat Serial Number
CTRLMODE	IQUANT	1	Control Mode
ELECTROMETER	IQUANT	0	RE=0 or CS=1
IESTAB	IQUANT	0	I/E Stability
CASPEED	IQUANT	3	Control Amp Speed
CONVENTION	IQUANT	1	Current Convention
ICHRANGE	IQUANT	2	Ich Range
ICHRANGEMODE	TOGGLE	F	Ich Auto Range
ICHOFFSETENABLE	TOGGLE	T	Ich Offset Enable
ICHOFFSET	QUANT	0	Ich Offset (V)
ICHFILTER	IQUANT	4	Ich Filter
VCHRANGE	IQUANT	2	Vch Range
VCHRANGEMODE	TOGGLE	F	Vch Auto Range
VCHOFFSETENABLE	TOGGLE	T	Vch Offset Enable
VCHOFFSET	QUANT	0	Vch Offset (V)
VCHFILTER	IQUANT	4	Vch Filter
IERANGELOWERLIMIT	IQUANT	4	I/E Range Lower Limit
IERANGEMODE	TOGGLE	F	I/E AutoRange
IERANGE	IQUANT	7	I/E Range
ACHSELECT	IQUANT	0	Ach Select
ACHRANGE	IQUANT	2	Ach Range
ACHOFFSETENABLE	TOGGLE	F	Ach Offset Enable
ACHOFFSET	QUANT	0	Ach Offset (V)
ACHFILTER	IQUANT	1	Ach Filter
SENSECABLEID	IQUANT	14	Sense Cable ID
PWRCABLEID	IQUANT	14	Power Cable ID
DCCALDATE	LABEL	11/25/2025	DC Calibration Date
ACCALDATE	LABEL	9/8/2018	AC Calibration Date
FRAMEWORKVERSION	QUANT	7.07	Framework Version
INSTRUMENTVERSION	LABEL	4.34	Instrument Version
ZCURVE	TABLE
	Pt	Time	Freq	Zreal	Zimag	Zsig	Zmod	Zphz	Idc	Vdc	IERange
	#	s	Hz	ohm	ohm	V	ohm	°	A	V	#
	0	8	1004.464	104.9174	-35.21903	1	110.6709	-18.55604	-0.0001111	-1.600059	9
	1	10	800.3049	104.8498	-41.73033	1	112.8491	-21.7026	-0.0001012	-1.600061	9
	2	13	631.0096	105.4325	-50.65969	1	116.9718	-25.66401	-9.476767E-005	-1.60006	9
	3	15	498.6702	106.813	-61.99445	1	123.5004	-30.13094	-9.013953E-005	-1.600064	9
	4	18	397.2458	108.6362	-75.78674	1	132.4593	-34.90038	-8.693615E-005	-1.600058	9
	5	20	319.6023	111.2852	-92.0732	1	144.4364	-39.60309	-8.439403E-005	-1.60006	9
	6	22	251.1161	115.6195	-114.4721	1	162.7014	-44.71427	-8.215056E-005	-1.600058	9
	7	25	200.8929	121.2619	-140.0258	1	185.2341	-49.10756	-8.000545E-005	-1.600059	9
	8	27	158.0056	130.0161	-173.7487	1	217.0088	-53.1925	-7.79566E-005	-1.60006	9
	9	30	125.558	142.3505	-213.162	1	256.3235	-56.26484	-7.62284E-005	-1.600062	9
	10	32	99.734	160.0988	-260.5927	1	305.8434	-58.43492	-7.46507E-005	-1.600058	9
	11	34	79.44915	185.3875	-315.9116	1	366.2904	-59.59417	-7.33845E-005	-1.60005	9
	12	37	63.34459	221.0144	-379.6554	1	439.3013	-59.7944	-7.213443E-005	-1.600052	9
	13	40	49.86702	274.5683	-456.1018	1	532.3689	-58.95252	-7.110643E-005	-1.600051	9
	14	42	38.10976	360.1771	-547.8527	1	655.6448	-56.67772	-7.041741E-005	-1.600054	9
	15	44	31.25	443.4607	-614.0383	1	757.4301	-54.16305	-6.982056E-005	-1.600052	9
	16	47	24.93351	561.1788	-680.4111	1	881.9756	-50.48541	-6.916431E-005	-1.600008	8
	17	50	19.94681	698.6609	-726.5933	1	1008	-46.12275	-6.895153E-005	-1.600009	8
	18	53	15.57309	865.8736	-746.1533	1	1143.014	-40.75262	-6.884651E-005	-1.60001	8
	19	56	12.40079	1018.685	-727.9252	1	1252.036	-35.54858	-6.895343E-005	-1.600012	8
	20	59	9.91015	1153.279	-678.264	1	1337.944	-30.46054	-6.927508E-005	-1.600011	8
	21	62	7.971939	1258.397	-607.59	1	1397.4	-25.77258	-6.983374E-005	-1.600011	8
	22	66	6.351626	1338.111	-523.4522	1	1436.852	-21.36481	-7.056447E-005	-1.600007	8
	23	70	4.970838	1381.998	-426.1232	1	1446.201	-17.13655	-7.218683E-005	-1.600054	9
	24	77	3.942389	1391.164	-340.9691	1	1432.339	-13.77151	-7.386263E-005	-1.600054	9
	25	84	3.16723	1376.385	-270.2615	1	1402.668	-11.10904	-7.582334E-005	-1.600053	9
	26	92	2.485419	1360.366	-214.3426	1	1377.148	-8.954052	-7.72475E-005	-1.600006	8
	27	100	1.971194	1329.884	-168.0816	1	1340.464	-7.203316	-7.924154E-005	-1.600001	8
	28	109	1.605308	1289.105	-135.1985	1	1296.176	-5.987166	-8.194995E-005	-1.60005	9
	29	120	1.260081	1244.85	-106.1966	1	1249.372	-4.876027	-8.454073E-005	-1.60005	9
	30	133	1.001603	1210.724	-87.00532	1	1213.847	-4.110334	-8.665489E-005	-1.600047	9
