EXPLAIN
TAG	EISPOT
TITLE	LABEL	Potentiostatic EIS	Test &Identifier
DATE	LABEL	4/30/2026	Date
TIME	LABEL	15:22:59	Time
NOTES	NOTES	1	&Notes...
	
PSTAT	PSTAT	Rhea	Potentiostat
VDC	POTEN	-1.60000E+000	F	DC &Voltage (V)
FREQINIT	QUANT	1.00000E+003	Initial Fre&q. (Hz)
FREQFINAL	QUANT	1.00000E+000	Final Fre&q. (Hz)
PTSPERDEC	QUANT	1.00000E+001	Points/&decade
VAC	QUANT	1.00000E+001	AC &Voltage (mV rms)
AREA	QUANT	2.80000E-001	&Area (cm^2)
CONDIT	TWOPARAM	F	0.00000E+000	0.00000E+000	Conditionin&g	Time(s)	E(V)
DELAY	TWOPARAM	T	1.00000E+001	0.00000E+000	Init. De&lay	Time(s)	Stab.(mV/s)
SPEED	SELECTOR	2	&Optimize for:
ZGUESS	QUANT	2.86800E+005	E&stimated Z (ohms)
OCVCURVE	TABLE	40
	Pt	T	Vf	Vm	Ach	Over	Temp
	#	s	V vs. Ref.	V	V	bits	deg C
	0	0.25	-2.91505E-001	-2.91505E-001	0.00000E+000	...........	1416.43
	1	0.5	-2.91473E-001	-2.89808E-001	0.00000E+000	...........	1415.90
	2	0.75	-2.91273E-001	-2.88131E-001	0.00000E+000	...........	1415.90
	3	1	-2.90700E-001	-2.86469E-001	0.00000E+000	...........	1415.90
	4	1.25	-2.89663E-001	-2.84822E-001	0.00000E+000	...........	1415.90
	5	1.5	-2.88256E-001	-2.83196E-001	0.00000E+000	...........	1415.90
	6	1.75	-2.86657E-001	-2.81574E-001	0.00000E+000	...........	1415.90
	7	2	-2.85000E-001	-2.79992E-001	0.00000E+000	...........	1415.90
	8	2.25	-2.83350E-001	-2.78438E-001	0.00000E+000	...........	1415.90
	9	2.5	-2.81728E-001	-2.76915E-001	0.00000E+000	...........	1415.90
	10	2.75	-2.80138E-001	-2.75405E-001	0.00000E+000	...........	1415.90
	11	3	-2.78579E-001	-2.73923E-001	0.00000E+000	...........	1415.90
	12	3.25	-2.77047E-001	-2.72450E-001	0.00000E+000	...........	1415.90
	13	3.5	-2.75538E-001	-2.70994E-001	0.00000E+000	...........	1415.90
	14	3.75	-2.74048E-001	-2.69567E-001	0.00000E+000	...........	1415.90
	15	4	-2.72577E-001	-2.68145E-001	0.00000E+000	...........	1415.90
	16	4.25	-2.71124E-001	-2.66752E-001	0.00000E+000	...........	1415.90
	17	4.5	-2.69689E-001	-2.65367E-001	0.00000E+000	...........	1415.90
	18	4.75	-2.68272E-001	-2.64025E-001	0.00000E+000	...........	1415.90
	19	5	-2.66874E-001	-2.62699E-001	0.00000E+000	...........	1415.90
	20	5.25	-2.65498E-001	-2.61370E-001	0.00000E+000	...........	1415.90
	21	5.5	-2.64144E-001	-2.60089E-001	0.00000E+000	...........	1415.90
	22	5.75	-2.62810E-001	-2.58830E-001	0.00000E+000	...........	1415.90
	23	6	-2.61497E-001	-2.57582E-001	0.00000E+000	...........	1415.90
	24	6.25	-2.60207E-001	-2.56336E-001	0.00000E+000	...........	1415.90
	25	6.5	-2.58937E-001	-2.55082E-001	0.00000E+000	...........	1415.90
	26	6.75	-2.57679E-001	-2.53841E-001	0.00000E+000	...........	1415.90
	27	7	-2.56430E-001	-2.52641E-001	0.00000E+000	...........	1415.90
	28	7.25	-2.55189E-001	-2.51447E-001	0.00000E+000	...........	1415.90
	29	7.5	-2.53959E-001	-2.50266E-001	0.00000E+000	...........	1415.90
	30	7.75	-2.52746E-001	-2.49106E-001	0.00000E+000	...........	1415.90
	31	8	-2.51551E-001	-2.47983E-001	0.00000E+000	...........	1415.90
	32	8.25	-2.50374E-001	-2.46876E-001	0.00000E+000	...........	1415.90
	33	8.5	-2.49218E-001	-2.45755E-001	0.00000E+000	...........	1415.90
	34	8.75	-2.48082E-001	-2.44649E-001	0.00000E+000	...........	1415.90
	35	9	-2.46960E-001	-2.43577E-001	0.00000E+000	...........	1415.90
	36	9.25	-2.45850E-001	-2.42492E-001	0.00000E+000	...........	1415.90
	37	9.5	-2.44752E-001	-2.41462E-001	0.00000E+000	...........	1415.90
	38	9.75	-2.43667E-001	-2.40427E-001	0.00000E+000	...........	1415.90
	39	10	-2.42600E-001	-2.39408E-001	0.00000E+000	...........	1415.90
EOC	QUANT	-0.2426	Open Circuit (V)
PSTATMODEL	IQUANT	64	Pstat Model
PSTATSECTION	LABEL	IFC1010-22099	Pstat Section
PSTATSERIALNO	LABEL	22099	Pstat Serial Number
CTRLMODE	IQUANT	1	Control Mode
ELECTROMETER	IQUANT	0	RE=0 or CS=1
IESTAB	IQUANT	0	I/E Stability
CASPEED	IQUANT	3	Control Amp Speed
CONVENTION	IQUANT	1	Current Convention
ICHRANGE	IQUANT	2	Ich Range
ICHRANGEMODE	TOGGLE	F	Ich Auto Range
ICHOFFSETENABLE	TOGGLE	T	Ich Offset Enable
ICHOFFSET	QUANT	0	Ich Offset (V)
ICHFILTER	IQUANT	4	Ich Filter
VCHRANGE	IQUANT	2	Vch Range
VCHRANGEMODE	TOGGLE	F	Vch Auto Range
VCHOFFSETENABLE	TOGGLE	T	Vch Offset Enable
VCHOFFSET	QUANT	0	Vch Offset (V)
VCHFILTER	IQUANT	4	Vch Filter
IERANGELOWERLIMIT	IQUANT	4	I/E Range Lower Limit
IERANGEMODE	TOGGLE	F	I/E AutoRange
IERANGE	IQUANT	7	I/E Range
ACHSELECT	IQUANT	0	Ach Select
ACHRANGE	IQUANT	2	Ach Range
ACHOFFSETENABLE	TOGGLE	F	Ach Offset Enable
ACHOFFSET	QUANT	0	Ach Offset (V)
ACHFILTER	IQUANT	1	Ach Filter
SENSECABLEID	IQUANT	14	Sense Cable ID
PWRCABLEID	IQUANT	14	Power Cable ID
DCCALDATE	LABEL	11/25/2025	DC Calibration Date
ACCALDATE	LABEL	9/8/2018	AC Calibration Date
FRAMEWORKVERSION	QUANT	7.07	Framework Version
INSTRUMENTVERSION	LABEL	4.34	Instrument Version
ZCURVE	TABLE
	Pt	Time	Freq	Zreal	Zimag	Zsig	Zmod	Zphz	Idc	Vdc	IERange
	#	s	Hz	ohm	ohm	V	ohm	°	A	V	#
	0	6	1004.464	84.33635	-23.45901	1	87.53825	-15.54445	-9.134771E-005	-1.60006	9
	1	9	800.3049	85.09341	-28.58243	1	89.7655	-18.56693	-9.085725E-005	-1.600059	9
	2	11	631.0096	86.11369	-35.15892	1	93.0146	-22.20946	-9.280272E-005	-1.600059	9
	3	14	498.6702	87.43632	-43.21232	1	97.5316	-26.29926	-9.498262E-005	-1.600056	9
	4	16	397.2458	89.17505	-52.72333	1	103.5951	-30.59303	-0.0000974	-1.600057	9
	5	19	319.6023	91.48899	-63.76992	1	111.5206	-34.87738	-0.0000999	-1.600059	9
	6	21	251.1161	95.1041	-78.78953	1	123.5013	-39.64024	-0.0001027	-1.600057	9
	7	24	200.8929	99.8248	-95.5668	1	138.1955	-43.75161	-0.0001051	-1.600055	9
	8	26	158.0056	107.1164	-117.3323	1	158.8735	-47.60603	-0.0001075	-1.600054	9
	9	28	125.558	117.1351	-142.1394	1	184.1853	-50.50854	-0.0001098	-1.600056	9
	10	31	99.734	131.3653	-171.1126	1	215.7229	-52.4861	-0.000112	-1.600057	9
	11	33	79.44915	150.9443	-203.1673	1	253.1031	-53.38929	-0.0001153	-1.60005	9
	12	36	63.34459	177.7244	-238.6384	1	297.547	-53.32333	-0.0001178	-1.600046	9
	13	38	49.86702	216.0623	-277.803	1	351.9338	-52.12588	-0.0001204	-1.600046	9
	14	41	38.10976	273.448	-320.1856	1	421.0614	-49.50169	-0.0001227	-1.600047	9
	15	44	31.25	324.7532	-344.6309	1	473.5347	-46.70093	-0.0001251	-1.600046	9
	16	46	24.93351	391.3522	-363.4832	1	534.1129	-42.88556	-0.0001276	-1.600047	9
	17	49	19.94681	462.5042	-369.1473	1	591.76	-38.59509	-0.0001306	-1.600049	9
	18	52	15.57309	540.8403	-360.1263	1	649.7686	-33.65823	-0.0001321	-1.600047	9
	19	55	12.40079	603.8974	-335.5581	1	690.8627	-29.05892	-0.0001342	-1.600045	9
	20	58	9.91015	654.5887	-300.3376	1	720.2007	-24.64655	-0.0001366	-1.600046	9
	21	62	7.971939	690.4514	-262.4259	1	738.6409	-20.81074	-0.0001388	-1.600046	9
	22	66	6.351626	713.4354	-220.374	1	746.6959	-17.16547	-0.0001416	-1.600045	9
	23	70	4.970838	726.8082	-179.5966	1	748.6689	-13.87992	-0.0001444	-1.600044	9
	24	75	3.942389	726.7173	-145.1622	1	741.0736	-11.29619	-0.0001476	-1.600044	9
	25	80	3.16723	717.1938	-117.2493	1	726.7148	-9.284772	-0.0001509	-1.600043	9
	26	87	2.485419	703.6873	-94.644	1	710.0235	-7.660156	-0.0001551	-1.600044	9
	27	95	1.971194	684.3991	-76.0321	1	688.6095	-6.33918	-0.0001596	-1.600042	9
	28	104	1.605308	661.1123	-62.45787	1	664.0561	-5.396938	-0.0001628	-1.600041	9
	29	115	1.260081	636.7291	-50.99419	1	638.7679	-4.578916	-0.0001694	-1.600042	9
	30	128	1.001603	618.5127	-43.8638	1	620.0661	-4.056522	-0.0001747	-1.600042	9
