EXPLAIN
TAG	EISPOT
TITLE	LABEL	Potentiostatic EIS	Test &Identifier
DATE	LABEL	4/30/2026	Date
TIME	LABEL	12:46:44	Time
NOTES	NOTES	1	&Notes...
	
PSTAT	PSTAT	Titan	Potentiostat
VDC	POTEN	-1.20000E+000	F	DC &Voltage (V)
FREQINIT	QUANT	1.00000E+003	Initial Fre&q. (Hz)
FREQFINAL	QUANT	1.00000E+000	Final Fre&q. (Hz)
PTSPERDEC	QUANT	1.00000E+001	Points/&decade
VAC	QUANT	1.00000E+001	AC &Voltage (mV rms)
AREA	QUANT	2.80000E-001	&Area (cm^2)
CONDIT	TWOPARAM	F	0.00000E+000	0.00000E+000	Conditionin&g	Time(s)	E(V)
DELAY	TWOPARAM	T	1.00000E+001	0.00000E+000	Init. De&lay	Time(s)	Stab.(mV/s)
SPEED	SELECTOR	2	&Optimize for:
ZGUESS	QUANT	2.86800E+005	E&stimated Z (ohms)
OCVCURVE	TABLE	40
	Pt	T	Vf	Vm	Ach	Over	Temp
	#	s	V vs. Ref.	V	V	bits	deg C
	0	0.25	-1.85447E-001	-1.85447E-001	0.00000E+000	...........	1410.80
	1	0.5	-1.85447E-001	-1.85445E-001	0.00000E+000	...........	1410.34
	2	0.75	-1.85447E-001	-1.85460E-001	0.00000E+000	...........	1410.27
	3	1	-1.85449E-001	-1.85499E-001	0.00000E+000	...........	1410.27
	4	1.25	-1.85456E-001	-1.85547E-001	0.00000E+000	...........	1410.27
	5	1.5	-1.85475E-001	-1.85623E-001	0.00000E+000	...........	1410.35
	6	1.75	-1.85508E-001	-1.85692E-001	0.00000E+000	...........	1410.36
	7	2	-1.85556E-001	-1.85712E-001	0.00000E+000	...........	1410.36
	8	2.25	-1.85611E-001	-1.85738E-001	0.00000E+000	...........	1410.36
	9	2.5	-1.85664E-001	-1.85841E-001	0.00000E+000	...........	1410.36
	10	2.75	-1.85713E-001	-1.85887E-001	0.00000E+000	...........	1410.36
	11	3	-1.85764E-001	-1.85888E-001	0.00000E+000	...........	1410.36
	12	3.25	-1.85814E-001	-1.85884E-001	0.00000E+000	...........	1410.36
	13	3.5	-1.85853E-001	-1.85883E-001	0.00000E+000	...........	1410.36
	14	3.75	-1.85875E-001	-1.85820E-001	0.00000E+000	...........	1410.36
	15	4	-1.85875E-001	-1.85730E-001	0.00000E+000	...........	1410.36
	16	4.25	-1.85852E-001	-1.85633E-001	0.00000E+000	...........	1410.36
	17	4.5	-1.85802E-001	-1.85539E-001	0.00000E+000	...........	1410.36
	18	4.75	-1.85728E-001	-1.85394E-001	0.00000E+000	...........	1410.36
	19	5	-1.85636E-001	-1.85272E-001	0.00000E+000	...........	1410.36
	20	5.25	-1.85528E-001	-1.85153E-001	0.00000E+000	...........	1410.36
	21	5.5	-1.85409E-001	-1.85016E-001	0.00000E+000	...........	1410.36
	22	5.75	-1.85284E-001	-1.84865E-001	0.00000E+000	...........	1410.36
	23	6	-1.85154E-001	-1.84711E-001	0.00000E+000	...........	1410.36
	24	6.25	-1.85017E-001	-1.84540E-001	0.00000E+000	...........	1410.36
	25	6.5	-1.84870E-001	-1.84351E-001	0.00000E+000	...........	1410.36
	26	6.75	-1.84712E-001	-1.84159E-001	0.00000E+000	...........	1410.36
	27	7	-1.84542E-001	-1.83967E-001	0.00000E+000	...........	1410.36
	28	7.25	-1.84362E-001	-1.83764E-001	0.00000E+000	...........	1410.36
	29	7.5	-1.84172E-001	-1.83553E-001	0.00000E+000	...........	1410.36
	30	7.75	-1.83976E-001	-1.83341E-001	0.00000E+000	...........	1410.36
	31	8	-1.83774E-001	-1.83125E-001	0.00000E+000	...........	1410.36
	32	8.25	-1.83567E-001	-1.82905E-001	0.00000E+000	...........	1410.36
	33	8.5	-1.83355E-001	-1.82683E-001	0.00000E+000	...........	1410.36
	34	8.75	-1.83140E-001	-1.82479E-001	0.00000E+000	...........	1410.36
	35	9	-1.82923E-001	-1.82270E-001	0.00000E+000	...........	1410.36
	36	9.25	-1.82708E-001	-1.82074E-001	0.00000E+000	...........	1410.36
	37	9.5	-1.82498E-001	-1.81883E-001	0.00000E+000	...........	1410.36
	38	9.75	-1.82293E-001	-1.81704E-001	0.00000E+000	...........	1410.36
	39	10	-1.82095E-001	-1.81556E-001	0.00000E+000	...........	1410.36
EOC	QUANT	-0.1820953	Open Circuit (V)
PSTATMODEL	IQUANT	64	Pstat Model
PSTATSECTION	LABEL	IFC1010-22093	Pstat Section
PSTATSERIALNO	LABEL	22093	Pstat Serial Number
CTRLMODE	IQUANT	1	Control Mode
ELECTROMETER	IQUANT	0	RE=0 or CS=1
IESTAB	IQUANT	0	I/E Stability
CASPEED	IQUANT	3	Control Amp Speed
CONVENTION	IQUANT	1	Current Convention
ICHRANGE	IQUANT	2	Ich Range
ICHRANGEMODE	TOGGLE	F	Ich Auto Range
ICHOFFSETENABLE	TOGGLE	T	Ich Offset Enable
ICHOFFSET	QUANT	0	Ich Offset (V)
ICHFILTER	IQUANT	4	Ich Filter
VCHRANGE	IQUANT	2	Vch Range
VCHRANGEMODE	TOGGLE	F	Vch Auto Range
VCHOFFSETENABLE	TOGGLE	T	Vch Offset Enable
VCHOFFSET	QUANT	0	Vch Offset (V)
VCHFILTER	IQUANT	4	Vch Filter
IERANGELOWERLIMIT	IQUANT	4	I/E Range Lower Limit
IERANGEMODE	TOGGLE	F	I/E AutoRange
IERANGE	IQUANT	7	I/E Range
ACHSELECT	IQUANT	0	Ach Select
ACHRANGE	IQUANT	2	Ach Range
ACHOFFSETENABLE	TOGGLE	F	Ach Offset Enable
ACHOFFSET	QUANT	0	Ach Offset (V)
ACHFILTER	IQUANT	1	Ach Filter
SENSECABLEID	IQUANT	14	Sense Cable ID
PWRCABLEID	IQUANT	14	Power Cable ID
DCCALDATE	LABEL	11/25/2025	DC Calibration Date
ACCALDATE	LABEL	8/31/2018	AC Calibration Date
FRAMEWORKVERSION	QUANT	7.07	Framework Version
INSTRUMENTVERSION	LABEL	4.34	Instrument Version
ZCURVE	TABLE
	Pt	Time	Freq	Zreal	Zimag	Zsig	Zmod	Zphz	Idc	Vdc	IERange
	#	s	Hz	ohm	ohm	V	ohm	°	A	V	#
	0	10	1004.464	145.8391	-53.50736	1	155.345	-20.14775	-0.0001475	-1.199674	9
	1	12	800.3049	139.9781	-63.08519	1	153.537	-24.26008	-0.0001405	-1.199676	9
	2	14	631.0096	136.5951	-75.4154	1	156.0311	-28.90348	-0.0001357	-1.199673	9
	3	17	498.6702	134.9222	-90.52644	1	162.4778	-33.85976	-0.0001324	-1.199674	9
	4	20	397.2458	134.4598	-108.7312	1	172.9217	-38.96083	-0.0001302	-1.199674	9
	5	22	319.6023	135.2828	-130.4168	1	187.9095	-43.9508	-0.0001293	-1.199676	9
	6	24	251.1161	137.7326	-160.9151	1	211.8111	-49.43867	-0.0001281	-1.199676	9
	7	27	200.8929	141.7159	-196.415	1	242.2029	-54.18908	-0.0001275	-1.199674	9
	8	29	158.0056	148.4391	-244.5742	1	286.0956	-58.74522	-0.0001269	-1.199674	9
	9	32	125.558	158.3381	-302.3588	1	341.309	-62.36003	-0.0001264	-1.199674	9
	10	34	99.734	173.5144	-374.1925	1	412.4649	-65.12268	-0.0001261	-1.199675	9
	11	37	79.44915	195.9068	-461.4991	1	501.3591	-66.99873	-0.0001261	-1.199672	9
	12	39	63.34459	229.1699	-567.4293	1	611.9598	-68.00751	-0.0001259	-1.199675	9
	13	42	49.86702	282.0198	-704.0345	1	758.4193	-68.17011	-0.0001261	-1.199675	9
	14	45	38.10976	372.1914	-888.0287	1	962.872	-67.26042	-0.0001261	-1.199676	9
	15	47	31.25	467.7769	-1045.874	1	1145.717	-65.90297	-0.0001262	-1.199675	9
	16	49	24.93351	618.994	-1244.108	1	1389.589	-63.5478	-0.0001259	-1.199674	9
	17	52	19.94681	824.5273	-1450.844	1	1668.77	-60.39006	-0.0001258	-1.199673	9
	18	54	15.57309	1125.187	-1670.5	1	2014.104	-56.03725	-0.0001257	-1.199672	9
	19	57	12.40079	1475.86	-1845.15	1	2362.782	-51.3451	-0.0001253	-1.199671	9
	20	60	9.91015	1881.675	-1950.987	1	2710.544	-46.03605	-0.000125	-1.19967	9
	21	63	7.971939	2300.392	-1998.846	1	3047.489	-40.98788	-0.0001248	-1.199671	9
	22	66	6.351626	2742.272	-1935.669	1	3356.616	-35.21687	-0.0001247	-1.199675	9
	23	71	4.970838	3154.321	-1792.615	1	3628.114	-29.60977	-0.0001246	-1.199674	9
	24	75	3.942389	3478.759	-1591.801	1	3825.649	-24.58775	-0.0001246	-1.199676	9
	25	80	3.16723	3759.759	-1408.195	1	4014.822	-20.53314	-0.0001241	-1.199674	9
	26	84	2.485419	3974.569	-1172.546	1	4143.918	-16.4367	-0.0001241	-1.199677	9
	27	91	1.971194	4140.189	-982.544	1	4255.181	-13.35038	-0.0001237	-1.199675	9
	28	100	1.605308	4251.784	-830.6362	1	4332.162	-11.05418	-0.0001239	-1.199675	9
	29	108	1.260081	4255.678	-683.7729	1	4310.26	-9.127875	-0.0001249	-1.199678	9
	30	121	1.001603	4299.176	-555.0828	1	4334.863	-7.356973	-0.0001251	-1.199678	9
