EXPLAIN
TAG	EISPOT
TITLE	LABEL	Potentiostatic EIS	Test &Identifier
DATE	LABEL	4/30/2026	Date
TIME	LABEL	14:42:13	Time
NOTES	NOTES	1	&Notes...
	
PSTAT	PSTAT	Rhea	Potentiostat
VDC	POTEN	-1.40000E+000	F	DC &Voltage (V)
FREQINIT	QUANT	1.00000E+003	Initial Fre&q. (Hz)
FREQFINAL	QUANT	1.00000E+000	Final Fre&q. (Hz)
PTSPERDEC	QUANT	1.00000E+001	Points/&decade
VAC	QUANT	1.00000E+001	AC &Voltage (mV rms)
AREA	QUANT	2.80000E-001	&Area (cm^2)
CONDIT	TWOPARAM	F	0.00000E+000	0.00000E+000	Conditionin&g	Time(s)	E(V)
DELAY	TWOPARAM	T	1.00000E+001	0.00000E+000	Init. De&lay	Time(s)	Stab.(mV/s)
SPEED	SELECTOR	2	&Optimize for:
ZGUESS	QUANT	2.86800E+005	E&stimated Z (ohms)
OCVCURVE	TABLE	40
	Pt	T	Vf	Vm	Ach	Over	Temp
	#	s	V vs. Ref.	V	V	bits	deg C
	0	0.25	-1.10545E-001	-1.10545E-001	0.00000E+000	...........	1416.34
	1	0.5	-1.10529E-001	-1.09748E-001	0.00000E+000	...........	1415.98
	2	0.75	-1.10433E-001	-1.08819E-001	0.00000E+000	...........	1415.81
	3	1	-1.10147E-001	-1.07874E-001	0.00000E+000	...........	1415.81
	4	1.25	-1.09610E-001	-1.06961E-001	0.00000E+000	...........	1415.81
	5	1.5	-1.08857E-001	-1.06065E-001	0.00000E+000	...........	1415.87
	6	1.75	-1.07983E-001	-1.05192E-001	0.00000E+000	...........	1415.90
	7	2	-1.07070E-001	-1.04344E-001	0.00000E+000	...........	1415.90
	8	2.25	-1.06164E-001	-1.03515E-001	0.00000E+000	...........	1415.90
	9	2.5	-1.05282E-001	-1.02703E-001	0.00000E+000	...........	1415.90
	10	2.75	-1.04426E-001	-1.01914E-001	0.00000E+000	...........	1415.90
	11	3	-1.03593E-001	-1.01134E-001	0.00000E+000	...........	1415.90
	12	3.25	-1.02780E-001	-1.00378E-001	0.00000E+000	...........	1415.90
	13	3.5	-1.01986E-001	-9.96382E-002	0.00000E+000	...........	1415.90
	14	3.75	-1.01209E-001	-9.89030E-002	0.00000E+000	...........	1415.90
	15	4	-1.00448E-001	-9.81694E-002	0.00000E+000	...........	1415.90
	16	4.25	-9.97004E-002	-9.74435E-002	0.00000E+000	...........	1415.90
	17	4.5	-9.89621E-002	-9.67320E-002	0.00000E+000	...........	1415.90
	18	4.75	-9.82316E-002	-9.60350E-002	0.00000E+000	...........	1415.90
	19	5	-9.75095E-002	-9.53478E-002	0.00000E+000	...........	1415.90
	20	5.25	-9.67980E-002	-9.46740E-002	0.00000E+000	...........	1415.90
	21	5.5	-9.60981E-002	-9.40084E-002	0.00000E+000	...........	1415.90
	22	5.75	-9.54103E-002	-9.33602E-002	0.00000E+000	...........	1415.90
	23	6	-9.47344E-002	-9.27187E-002	0.00000E+000	...........	1415.90
	24	6.25	-9.40703E-002	-9.20863E-002	0.00000E+000	...........	1415.90
	25	6.5	-9.34174E-002	-9.14609E-002	0.00000E+000	...........	1415.90
	26	6.75	-9.27747E-002	-9.08446E-002	0.00000E+000	...........	1415.90
	27	7	-9.21412E-002	-9.02444E-002	0.00000E+000	...........	1415.90
	28	7.25	-9.15170E-002	-8.96609E-002	0.00000E+000	...........	1415.90
	29	7.5	-9.09035E-002	-8.90793E-002	0.00000E+000	...........	1415.90
	30	7.75	-9.03018E-002	-8.85108E-002	0.00000E+000	...........	1415.90
	31	8	-8.97115E-002	-8.79437E-002	0.00000E+000	...........	1415.90
	32	8.25	-8.91312E-002	-8.74024E-002	0.00000E+000	...........	1415.90
	33	8.5	-8.85605E-002	-8.68583E-002	0.00000E+000	...........	1415.90
	34	8.75	-8.79998E-002	-8.63303E-002	0.00000E+000	...........	1415.90
	35	9	-8.74492E-002	-8.58049E-002	0.00000E+000	...........	1415.90
	36	9.25	-8.69085E-002	-8.53023E-002	0.00000E+000	...........	1415.90
	37	9.5	-8.63774E-002	-8.47941E-002	0.00000E+000	...........	1415.90
	38	9.75	-8.58560E-002	-8.42915E-002	0.00000E+000	...........	1415.90
	39	10	-8.53428E-002	-8.37926E-002	0.00000E+000	...........	1415.90
EOC	QUANT	-0.0853428	Open Circuit (V)
PSTATMODEL	IQUANT	64	Pstat Model
PSTATSECTION	LABEL	IFC1010-22099	Pstat Section
PSTATSERIALNO	LABEL	22099	Pstat Serial Number
CTRLMODE	IQUANT	1	Control Mode
ELECTROMETER	IQUANT	0	RE=0 or CS=1
IESTAB	IQUANT	0	I/E Stability
CASPEED	IQUANT	3	Control Amp Speed
CONVENTION	IQUANT	1	Current Convention
ICHRANGE	IQUANT	2	Ich Range
ICHRANGEMODE	TOGGLE	F	Ich Auto Range
ICHOFFSETENABLE	TOGGLE	T	Ich Offset Enable
ICHOFFSET	QUANT	0	Ich Offset (V)
ICHFILTER	IQUANT	4	Ich Filter
VCHRANGE	IQUANT	2	Vch Range
VCHRANGEMODE	TOGGLE	F	Vch Auto Range
VCHOFFSETENABLE	TOGGLE	T	Vch Offset Enable
VCHOFFSET	QUANT	0	Vch Offset (V)
VCHFILTER	IQUANT	4	Vch Filter
IERANGELOWERLIMIT	IQUANT	4	I/E Range Lower Limit
IERANGEMODE	TOGGLE	F	I/E AutoRange
IERANGE	IQUANT	7	I/E Range
ACHSELECT	IQUANT	0	Ach Select
ACHRANGE	IQUANT	2	Ach Range
ACHOFFSETENABLE	TOGGLE	F	Ach Offset Enable
ACHOFFSET	QUANT	0	Ach Offset (V)
ACHFILTER	IQUANT	1	Ach Filter
SENSECABLEID	IQUANT	14	Sense Cable ID
PWRCABLEID	IQUANT	14	Power Cable ID
DCCALDATE	LABEL	11/25/2025	DC Calibration Date
ACCALDATE	LABEL	9/8/2018	AC Calibration Date
FRAMEWORKVERSION	QUANT	7.07	Framework Version
INSTRUMENTVERSION	LABEL	4.34	Instrument Version
ZCURVE	TABLE
	Pt	Time	Freq	Zreal	Zimag	Zsig	Zmod	Zphz	Idc	Vdc	IERange
	#	s	Hz	ohm	ohm	V	ohm	°	A	V	#
	0	7	1004.464	94.51933	-33.64126	1	100.3277	-19.59163	-3.770286E-005	-1.400041	9
	1	9	800.3049	95.5245	-40.99444	1	103.9494	-23.22664	-3.638657E-005	-1.400041	9
	2	12	631.0096	96.7692	-50.49726	1	109.1524	-27.557	-3.542237E-005	-1.400043	9
	3	14	498.6702	98.2638	-62.23167	1	116.3123	-32.34659	-3.465035E-005	-1.400038	9
	4	17	397.2458	99.9615	-76.3747	1	125.7991	-37.38131	-3.406964E-005	-1.400038	9
	5	19	319.6023	101.9764	-93.04994	1	138.0488	-42.37938	-3.363303E-005	-1.400041	9
	6	21	251.1161	104.8416	-116.1059	1	156.4364	-47.91851	-3.320812E-005	-1.400039	9
	7	24	200.8929	108.2685	-142.6948	1	179.1197	-52.8109	-3.285997E-005	-1.400039	9
	8	27	158.0056	113.2864	-178.3609	1	211.297	-57.57824	-3.258072E-005	-1.40004	9
	9	29	125.558	119.8417	-220.8099	1	251.235	-61.50967	-3.234768E-005	-1.400037	9
	10	32	99.734	128.8474	-273.6391	1	302.4567	-64.78584	-3.184173E-005	-1.400021	8
	11	34	79.44915	141.1325	-337.5967	1	365.9098	-67.3126	-3.170557E-005	-1.400013	8
	12	37	63.34459	158.1628	-416.0231	1	445.0739	-69.1843	-3.153852E-005	-1.400011	8
	13	39	49.86702	184.1213	-518.5136	1	550.2336	-70.45033	-3.141015E-005	-1.400015	8
	14	41	38.10976	226.3651	-661.8507	1	699.4909	-71.11837	-3.124162E-005	-1.400011	8
	15	44	31.25	270.5871	-790.2042	1	835.2485	-71.09742	-3.116334E-005	-1.400014	8
	16	47	24.93351	340.925	-963.569	1	1022.103	-70.51546	-3.105105E-005	-1.400012	8
	17	49	19.94681	438.9293	-1163.953	1	1243.964	-69.33843	-3.101902E-005	-1.400013	8
	18	52	15.57309	593.33	-1421.775	1	1540.612	-67.34843	-3.088391E-005	-1.400014	8
	19	55	12.40079	791.8989	-1685.443	1	1862.209	-64.8337	-3.081435E-005	-1.400013	8
	20	58	9.91015	1050.721	-1959.648	1	2223.563	-61.80074	-3.073046E-005	-1.400014	8
	21	62	7.971939	1367.01	-2224.713	1	2611.142	-58.43069	-3.063267E-005	-1.400016	8
	22	66	6.351626	1764.55	-2480.072	1	3043.746	-54.56848	-3.05539E-005	-1.400017	8
	23	70	4.970838	2255.256	-2714.604	1	3529.2	-50.28066	-3.046309E-005	-1.400014	8
	24	75	3.942389	2761.459	-2883.335	1	3992.402	-46.23687	-3.044355E-005	-1.400015	8
	25	81	3.16723	3259.973	-3013.377	1	4439.354	-42.74895	-3.039062E-005	-1.400013	8
	26	87	2.485419	3833.151	-3108.719	1	4935.299	-39.04236	-3.03352E-005	-1.400013	8
	27	95	1.971194	4379.928	-3163.158	1	5402.716	-35.83659	-3.028184E-005	-1.400013	8
	28	104	1.605308	4868.609	-3190.872	1	5821.083	-33.24072	-3.024448E-005	-1.400014	8
	29	115	1.260081	5428.246	-3182.005	1	6292.138	-30.37857	-3.023621E-005	-1.400015	8
	30	128	1.001603	5943.806	-3150.067	1	6726.942	-27.92246	-3.020477E-005	-1.400012	8
