EXPLAIN
TAG	EISPOT
TITLE	LABEL	Potentiostatic EIS	Test &Identifier
DATE	LABEL	4/30/2026	Date
TIME	LABEL	14:06:48	Time
NOTES	NOTES	1	&Notes...
	
PSTAT	PSTAT	Rhea	Potentiostat
VDC	POTEN	-1.60000E+000	F	DC &Voltage (V)
FREQINIT	QUANT	1.00000E+003	Initial Fre&q. (Hz)
FREQFINAL	QUANT	1.00000E+000	Final Fre&q. (Hz)
PTSPERDEC	QUANT	1.00000E+001	Points/&decade
VAC	QUANT	1.00000E+001	AC &Voltage (mV rms)
AREA	QUANT	2.80000E-001	&Area (cm^2)
CONDIT	TWOPARAM	F	0.00000E+000	0.00000E+000	Conditionin&g	Time(s)	E(V)
DELAY	TWOPARAM	T	1.00000E+001	0.00000E+000	Init. De&lay	Time(s)	Stab.(mV/s)
SPEED	SELECTOR	2	&Optimize for:
ZGUESS	QUANT	2.86800E+005	E&stimated Z (ohms)
OCVCURVE	TABLE	40
	Pt	T	Vf	Vm	Ach	Over	Temp
	#	s	V vs. Ref.	V	V	bits	deg C
	0	0.25	-2.31590E-001	-2.31590E-001	0.00000E+000	...........	1416.34
	1	0.5	-2.31585E-001	-2.31379E-001	0.00000E+000	...........	1415.81
	2	0.75	-2.31561E-001	-2.31169E-001	0.00000E+000	...........	1415.81
	3	1	-2.31490E-001	-2.30970E-001	0.00000E+000	...........	1415.81
	4	1.25	-2.31361E-001	-2.30756E-001	0.00000E+000	...........	1415.81
	5	1.5	-2.31186E-001	-2.30548E-001	0.00000E+000	...........	1415.99
	6	1.75	-2.30987E-001	-2.30342E-001	0.00000E+000	...........	1415.99
	7	2	-2.30778E-001	-2.30141E-001	0.00000E+000	...........	1415.99
	8	2.25	-2.30568E-001	-2.29941E-001	0.00000E+000	...........	1415.99
	9	2.5	-2.30362E-001	-2.29745E-001	0.00000E+000	...........	1415.99
	10	2.75	-2.30159E-001	-2.29549E-001	0.00000E+000	...........	1415.99
	11	3	-2.29959E-001	-2.29355E-001	0.00000E+000	...........	1415.99
	12	3.25	-2.29761E-001	-2.29166E-001	0.00000E+000	...........	1415.99
	13	3.5	-2.29566E-001	-2.28974E-001	0.00000E+000	...........	1415.99
	14	3.75	-2.29372E-001	-2.28781E-001	0.00000E+000	...........	1415.99
	15	4	-2.29180E-001	-2.28583E-001	0.00000E+000	...........	1415.99
	16	4.25	-2.28987E-001	-2.28383E-001	0.00000E+000	...........	1415.99
	17	4.5	-2.28793E-001	-2.28183E-001	0.00000E+000	...........	1415.90
	18	4.75	-2.28597E-001	-2.27980E-001	0.00000E+000	...........	1415.90
	19	5	-2.28398E-001	-2.27795E-001	0.00000E+000	...........	1415.90
	20	5.25	-2.28200E-001	-2.27618E-001	0.00000E+000	...........	1415.90
	21	5.5	-2.28005E-001	-2.27418E-001	0.00000E+000	...........	1415.99
	22	5.75	-2.27813E-001	-2.27205E-001	0.00000E+000	...........	1415.99
	23	6	-2.27621E-001	-2.27004E-001	0.00000E+000	...........	1415.99
	24	6.25	-2.27424E-001	-2.26794E-001	0.00000E+000	...........	1415.99
	25	6.5	-2.27223E-001	-2.26584E-001	0.00000E+000	...........	1415.90
	26	6.75	-2.27018E-001	-2.26383E-001	0.00000E+000	...........	1415.90
	27	7	-2.26811E-001	-2.26185E-001	0.00000E+000	...........	1415.90
	28	7.25	-2.26605E-001	-2.25987E-001	0.00000E+000	...........	1415.90
	29	7.5	-2.26402E-001	-2.25786E-001	0.00000E+000	...........	1415.99
	30	7.75	-2.26201E-001	-2.25591E-001	0.00000E+000	...........	1415.99
	31	8	-2.26002E-001	-2.25406E-001	0.00000E+000	...........	1415.99
	32	8.25	-2.25805E-001	-2.25225E-001	0.00000E+000	...........	1415.99
	33	8.5	-2.25612E-001	-2.25036E-001	0.00000E+000	...........	1415.99
	34	8.75	-2.25423E-001	-2.24847E-001	0.00000E+000	...........	1415.99
	35	9	-2.25236E-001	-2.24666E-001	0.00000E+000	...........	1415.99
	36	9.25	-2.25050E-001	-2.24488E-001	0.00000E+000	...........	1415.99
	37	9.5	-2.24866E-001	-2.24310E-001	0.00000E+000	...........	1415.99
	38	9.75	-2.24683E-001	-2.24117E-001	0.00000E+000	...........	1415.99
	39	10	-2.24501E-001	-2.23923E-001	0.00000E+000	...........	1415.99
EOC	QUANT	-0.2245006	Open Circuit (V)
PSTATMODEL	IQUANT	64	Pstat Model
PSTATSECTION	LABEL	IFC1010-22099	Pstat Section
PSTATSERIALNO	LABEL	22099	Pstat Serial Number
CTRLMODE	IQUANT	1	Control Mode
ELECTROMETER	IQUANT	0	RE=0 or CS=1
IESTAB	IQUANT	0	I/E Stability
CASPEED	IQUANT	3	Control Amp Speed
CONVENTION	IQUANT	1	Current Convention
ICHRANGE	IQUANT	2	Ich Range
ICHRANGEMODE	TOGGLE	F	Ich Auto Range
ICHOFFSETENABLE	TOGGLE	T	Ich Offset Enable
ICHOFFSET	QUANT	0	Ich Offset (V)
ICHFILTER	IQUANT	4	Ich Filter
VCHRANGE	IQUANT	2	Vch Range
VCHRANGEMODE	TOGGLE	F	Vch Auto Range
VCHOFFSETENABLE	TOGGLE	T	Vch Offset Enable
VCHOFFSET	QUANT	0	Vch Offset (V)
VCHFILTER	IQUANT	4	Vch Filter
IERANGELOWERLIMIT	IQUANT	4	I/E Range Lower Limit
IERANGEMODE	TOGGLE	F	I/E AutoRange
IERANGE	IQUANT	7	I/E Range
ACHSELECT	IQUANT	0	Ach Select
ACHRANGE	IQUANT	2	Ach Range
ACHOFFSETENABLE	TOGGLE	F	Ach Offset Enable
ACHOFFSET	QUANT	0	Ach Offset (V)
ACHFILTER	IQUANT	1	Ach Filter
SENSECABLEID	IQUANT	14	Sense Cable ID
PWRCABLEID	IQUANT	14	Power Cable ID
DCCALDATE	LABEL	11/25/2025	DC Calibration Date
ACCALDATE	LABEL	9/8/2018	AC Calibration Date
FRAMEWORKVERSION	QUANT	7.07	Framework Version
INSTRUMENTVERSION	LABEL	4.34	Instrument Version
ZCURVE	TABLE
	Pt	Time	Freq	Zreal	Zimag	Zsig	Zmod	Zphz	Idc	Vdc	IERange
	#	s	Hz	ohm	ohm	V	ohm	°	A	V	#
	0	9	1004.464	109.9746	-26.96112	1	113.2312	-13.77482	-0.0001228	-1.60005	9
	1	11	800.3049	111.0788	-32.87597	1	115.8419	-16.48716	-0.0001191	-1.600051	9
	2	13	631.0096	112.0579	-40.49225	1	119.1495	-19.86738	-0.0001178	-1.600049	9
	3	16	498.6702	113.6284	-49.86476	1	124.0883	-23.69381	-0.0001169	-1.600048	9
	4	18	397.2458	115.5971	-61.07306	1	130.7387	-27.84869	-0.0001167	-1.600048	9
	5	21	319.6023	118.2054	-74.13618	1	139.5302	-32.09516	-0.0001162	-1.60005	9
	6	23	251.1161	122.4444	-92.07858	1	153.2028	-36.94329	-0.0001152	-1.600045	9
	7	25	200.8929	127.8212	-112.1936	1	170.0754	-41.27467	-0.0001156	-1.600047	9
	8	28	158.0056	136.5706	-138.3105	1	194.3741	-45.36266	-0.0001161	-1.600047	9
	9	30	125.558	148.423	-168.2227	1	224.3396	-48.57803	-0.0001168	-1.600046	9
	10	33	99.734	164.971	-203.8136	1	262.2125	-51.01255	-0.0001172	-1.60005	9
	11	35	79.44915	187.5128	-245.0023	1	308.5242	-52.57132	-0.0001174	-1.600038	9
	12	37	63.34459	219.1189	-289.9452	1	363.4299	-52.92073	-0.0001176	-1.600039	9
	13	40	49.86702	264.3923	-342.3501	1	432.5585	-52.32158	-0.000118	-1.600037	9
	14	42	38.10976	333.3166	-402.6671	1	522.7243	-50.38299	-0.0001187	-1.600039	9
	15	45	31.25	395.6804	-447.103	1	597.0461	-48.49158	-0.0001197	-1.600039	9
	16	47	24.93351	482.5779	-482.3005	1	682.2721	-44.98353	-0.0001202	-1.60004	9
	17	50	19.94681	579.2221	-507.1858	1	769.8932	-41.20645	-0.0001203	-1.600038	9
	18	53	15.57309	693.1476	-518.5907	1	865.6732	-36.80265	-0.000121	-1.600038	9
	19	56	12.40079	797.2251	-510.1726	1	946.4903	-32.61662	-0.0001217	-1.600036	9
	20	59	9.91015	888.4395	-471.4294	1	1005.769	-27.9516	-0.0001227	-1.600037	9
	21	62	7.971939	965.846	-427.1012	1	1056.065	-23.85521	-0.0001232	-1.600039	9
	22	66	6.351626	1026.342	-374.7804	1	1092.629	-20.06023	-0.0001246	-1.600039	9
	23	71	4.970838	1071.558	-316.9501	1	1117.45	-16.47739	-0.0001269	-1.600039	9
	24	75	3.942389	1103.378	-262.7988	1	1134.243	-13.39691	-0.0001274	-1.60004	9
	25	81	3.16723	1113.932	-215.2926	1	1134.547	-10.93883	-0.0001292	-1.60004	9
	26	88	2.485419	1115.259	-174.9457	1	1128.897	-8.915082	-0.0001314	-1.600039	9
	27	95	1.971194	1096.328	-134.8555	1	1104.591	-7.012528	-0.0001338	-1.600039	9
	28	105	1.605308	1080.25	-110.9401	1	1085.931	-5.863638	-0.0001362	-1.600037	9
	29	115	1.260081	1059.442	-84.16175	1	1062.78	-4.542021	-0.0001388	-1.600037	9
	30	129	1.001603	1034.294	-69.38254	1	1036.619	-3.837766	-0.0001405	-1.60004	9
