EXPLAIN
TAG	EISPOT
TITLE	LABEL	Potentiostatic EIS	Test &Identifier
DATE	LABEL	4/30/2026	Date
TIME	LABEL	14:45:02	Time
NOTES	NOTES	1	&Notes...
	
PSTAT	PSTAT	Rhea	Potentiostat
VDC	POTEN	-1.60000E+000	F	DC &Voltage (V)
FREQINIT	QUANT	1.00000E+003	Initial Fre&q. (Hz)
FREQFINAL	QUANT	1.00000E+000	Final Fre&q. (Hz)
PTSPERDEC	QUANT	1.00000E+001	Points/&decade
VAC	QUANT	1.00000E+001	AC &Voltage (mV rms)
AREA	QUANT	2.80000E-001	&Area (cm^2)
CONDIT	TWOPARAM	F	0.00000E+000	0.00000E+000	Conditionin&g	Time(s)	E(V)
DELAY	TWOPARAM	T	1.00000E+001	0.00000E+000	Init. De&lay	Time(s)	Stab.(mV/s)
SPEED	SELECTOR	2	&Optimize for:
ZGUESS	QUANT	2.86800E+005	E&stimated Z (ohms)
OCVCURVE	TABLE	40
	Pt	T	Vf	Vm	Ach	Over	Temp
	#	s	V vs. Ref.	V	V	bits	deg C
	0	0.25	-2.66356E-001	-2.66356E-001	0.00000E+000	...........	1416.34
	1	0.5	-2.66331E-001	-2.65069E-001	0.00000E+000	...........	1416.34
	2	0.75	-2.66179E-001	-2.63778E-001	0.00000E+000	...........	1415.81
	3	1	-2.65743E-001	-2.62513E-001	0.00000E+000	...........	1415.81
	4	1.25	-2.64951E-001	-2.61253E-001	0.00000E+000	...........	1415.81
	5	1.5	-2.63877E-001	-2.59991E-001	0.00000E+000	...........	1415.81
	6	1.75	-2.62653E-001	-2.58748E-001	0.00000E+000	...........	1415.46
	7	2	-2.61382E-001	-2.57510E-001	0.00000E+000	...........	1415.46
	8	2.25	-2.60111E-001	-2.56313E-001	0.00000E+000	...........	1415.46
	9	2.5	-2.58858E-001	-2.55076E-001	0.00000E+000	...........	1415.46
	10	2.75	-2.57622E-001	-2.53882E-001	0.00000E+000	...........	1415.46
	11	3	-2.56399E-001	-2.52697E-001	0.00000E+000	...........	1415.46
	12	3.25	-2.55187E-001	-2.51536E-001	0.00000E+000	...........	1415.46
	13	3.5	-2.53988E-001	-2.50378E-001	0.00000E+000	...........	1415.46
	14	3.75	-2.52804E-001	-2.49238E-001	0.00000E+000	...........	1415.46
	15	4	-2.51634E-001	-2.48105E-001	0.00000E+000	...........	1415.46
	16	4.25	-2.50478E-001	-2.46986E-001	0.00000E+000	...........	1415.46
	17	4.5	-2.49334E-001	-2.45886E-001	0.00000E+000	...........	1415.46
	18	4.75	-2.48203E-001	-2.44792E-001	0.00000E+000	...........	1415.72
	19	5	-2.47084E-001	-2.43697E-001	0.00000E+000	...........	1415.72
	20	5.25	-2.45977E-001	-2.42593E-001	0.00000E+000	...........	1415.72
	21	5.5	-2.44877E-001	-2.41542E-001	0.00000E+000	...........	1415.72
	22	5.75	-2.43784E-001	-2.40470E-001	0.00000E+000	...........	1415.46
	23	6	-2.42699E-001	-2.39419E-001	0.00000E+000	...........	1415.46
	24	6.25	-2.41625E-001	-2.38377E-001	0.00000E+000	...........	1415.46
	25	6.5	-2.40562E-001	-2.37344E-001	0.00000E+000	...........	1415.46
	26	6.75	-2.39509E-001	-2.36326E-001	0.00000E+000	...........	1415.99
	27	7	-2.38466E-001	-2.35321E-001	0.00000E+000	...........	1415.99
	28	7.25	-2.37434E-001	-2.34322E-001	0.00000E+000	...........	1415.99
	29	7.5	-2.36414E-001	-2.33338E-001	0.00000E+000	...........	1415.99
	30	7.75	-2.35406E-001	-2.32362E-001	0.00000E+000	...........	1415.55
	31	8	-2.34408E-001	-2.31390E-001	0.00000E+000	...........	1415.55
	32	8.25	-2.33421E-001	-2.30434E-001	0.00000E+000	...........	1415.55
	33	8.5	-2.32443E-001	-2.29484E-001	0.00000E+000	...........	1415.55
	34	8.75	-2.31474E-001	-2.28535E-001	0.00000E+000	...........	1415.63
	35	9	-2.30514E-001	-2.27598E-001	0.00000E+000	...........	1415.63
	36	9.25	-2.29561E-001	-2.26672E-001	0.00000E+000	...........	1415.63
	37	9.5	-2.28616E-001	-2.25752E-001	0.00000E+000	...........	1415.63
	38	9.75	-2.27679E-001	-2.24844E-001	0.00000E+000	...........	1415.63
	39	10	-2.26750E-001	-2.23941E-001	0.00000E+000	...........	1415.63
EOC	QUANT	-0.2267502	Open Circuit (V)
PSTATMODEL	IQUANT	64	Pstat Model
PSTATSECTION	LABEL	IFC1010-22099	Pstat Section
PSTATSERIALNO	LABEL	22099	Pstat Serial Number
CTRLMODE	IQUANT	1	Control Mode
ELECTROMETER	IQUANT	0	RE=0 or CS=1
IESTAB	IQUANT	0	I/E Stability
CASPEED	IQUANT	3	Control Amp Speed
CONVENTION	IQUANT	1	Current Convention
ICHRANGE	IQUANT	2	Ich Range
ICHRANGEMODE	TOGGLE	F	Ich Auto Range
ICHOFFSETENABLE	TOGGLE	T	Ich Offset Enable
ICHOFFSET	QUANT	0	Ich Offset (V)
ICHFILTER	IQUANT	4	Ich Filter
VCHRANGE	IQUANT	2	Vch Range
VCHRANGEMODE	TOGGLE	F	Vch Auto Range
VCHOFFSETENABLE	TOGGLE	T	Vch Offset Enable
VCHOFFSET	QUANT	0	Vch Offset (V)
VCHFILTER	IQUANT	4	Vch Filter
IERANGELOWERLIMIT	IQUANT	4	I/E Range Lower Limit
IERANGEMODE	TOGGLE	F	I/E AutoRange
IERANGE	IQUANT	7	I/E Range
ACHSELECT	IQUANT	0	Ach Select
ACHRANGE	IQUANT	2	Ach Range
ACHOFFSETENABLE	TOGGLE	F	Ach Offset Enable
ACHOFFSET	QUANT	0	Ach Offset (V)
ACHFILTER	IQUANT	1	Ach Filter
SENSECABLEID	IQUANT	14	Sense Cable ID
PWRCABLEID	IQUANT	14	Power Cable ID
DCCALDATE	LABEL	11/25/2025	DC Calibration Date
ACCALDATE	LABEL	9/8/2018	AC Calibration Date
FRAMEWORKVERSION	QUANT	7.07	Framework Version
INSTRUMENTVERSION	LABEL	4.34	Instrument Version
ZCURVE	TABLE
	Pt	Time	Freq	Zreal	Zimag	Zsig	Zmod	Zphz	Idc	Vdc	IERange
	#	s	Hz	ohm	ohm	V	ohm	°	A	V	#
	0	6	1004.464	87.84541	-21.19302	1	90.3657	-13.56363	-7.032995E-005	-1.600057	9
	1	9	800.3049	88.57499	-25.664	1	92.21806	-16.15858	-6.903706E-005	-1.600054	9
	2	11	631.0096	89.47393	-31.40475	1	94.82533	-19.34073	-6.886096E-005	-1.600057	9
	3	14	498.6702	90.53908	-38.40754	1	98.3487	-22.98712	-6.953956E-005	-1.600056	9
	4	16	397.2458	91.78623	-46.7263	1	102.9954	-26.97962	-7.080002E-005	-1.600054	9
	5	18	319.6023	93.30812	-56.44209	1	109.051	-31.16974	-7.194477E-005	-1.60005	9
	6	21	251.1161	95.5418	-69.68435	1	118.2545	-36.10552	-7.357095E-005	-1.600054	9
	7	24	200.8929	98.367	-84.8112	1	129.8807	-40.76765	-7.515555E-005	-1.600053	9
	8	26	158.0056	102.5826	-104.8331	1	146.6737	-45.62166	-7.684289E-005	-1.60005	9
	9	28	125.558	108.3126	-128.1903	1	167.8224	-49.80434	-7.867034E-005	-1.600052	9
	10	31	99.734	116.4876	-156.6028	1	195.1763	-53.35661	-8.030951E-005	-1.600053	9
	11	33	79.44915	127.9863	-190.2189	1	229.2678	-56.06587	-8.19358E-005	-1.600042	9
	12	35	63.34459	144.6208	-229.6741	1	271.4137	-57.80227	-8.402542E-005	-1.60004	9
	13	38	49.86702	169.9075	-278.8951	1	326.5747	-58.64954	-8.554476E-005	-1.600045	9
	14	40	38.10976	211.7214	-342.4796	1	402.6391	-58.27558	-8.73008E-005	-1.600042	9
	15	43	31.25	254.9139	-392.1469	1	467.7181	-56.97424	-8.893606E-005	-1.600043	9
	16	45	24.93351	319.7707	-449.1767	1	551.3737	-54.55278	-9.048007E-005	-1.600044	9
	17	48	19.94681	402.1906	-498.5589	1	640.5609	-51.10666	-9.235278E-005	-1.600042	9
	18	51	15.57309	512.9869	-537.7963	1	743.223	-46.35252	-9.417509E-005	-1.600042	9
	19	54	12.40079	625.6562	-547.7069	1	831.5218	-41.19929	-0.0000961	-1.600042	9
	20	57	9.91015	734.9229	-529.3824	1	905.7358	-35.7661	-0.0000981	-1.600042	9
	21	60	7.971939	826.801	-485.8257	1	958.972	-30.43836	-0.0001002	-1.600041	9
	22	64	6.351626	900.1	-425.2161	1	995.484	-25.28651	-0.0001022	-1.600039	9
	23	68	4.970838	947.5636	-352.0762	1	1010.858	-20.38303	-0.0001045	-1.60004	9
	24	73	3.942389	969.602	-279.84	1	1009.177	-16.09884	-0.0001071	-1.60004	9
	25	79	3.16723	968.368	-225.1826	1	994.205	-13.09081	-0.0001099	-1.600043	9
	26	85	2.485419	958.862	-177.43	1	975.14	-10.48357	-0.0001135	-1.600041	9
	27	93	1.971194	931.1006	-135.2081	1	940.8665	-8.262352	-0.0001174	-1.600042	9
	28	102	1.605308	897.0505	-108.1385	1	903.545	-6.87378	-0.0001218	-1.600042	9
	29	113	1.260081	861.7272	-83.42113	1	865.7556	-5.529397	-0.0001263	-1.600041	9
	30	126	1.001603	832.5858	-67.12769	1	835.2875	-4.609533	-0.0001298	-1.600039	9
