EXPLAIN
TAG	EISPOT
TITLE	LABEL	Potentiostatic EIS	Test &Identifier
DATE	LABEL	4/30/2026	Date
TIME	LABEL	12:00:49	Time
NOTES	NOTES	1	&Notes...
	
PSTAT	PSTAT	Rhea	Potentiostat
VDC	POTEN	-1.40000E+000	F	DC &Voltage (V)
FREQINIT	QUANT	1.00000E+003	Initial Fre&q. (Hz)
FREQFINAL	QUANT	1.00000E+000	Final Fre&q. (Hz)
PTSPERDEC	QUANT	1.00000E+001	Points/&decade
VAC	QUANT	1.00000E+001	AC &Voltage (mV rms)
AREA	QUANT	2.80000E-001	&Area (cm^2)
CONDIT	TWOPARAM	F	0.00000E+000	0.00000E+000	Conditionin&g	Time(s)	E(V)
DELAY	TWOPARAM	T	1.00000E+001	0.00000E+000	Init. De&lay	Time(s)	Stab.(mV/s)
SPEED	SELECTOR	2	&Optimize for:
ZGUESS	QUANT	2.86800E+005	E&stimated Z (ohms)
OCVCURVE	TABLE	40
	Pt	T	Vf	Vm	Ach	Over	Temp
	#	s	V vs. Ref.	V	V	bits	deg C
	0	0.25	-7.86075E-002	-7.86075E-002	0.00000E+000	...........	1411.56
	1	0.5	-7.85991E-002	-7.81677E-002	0.00000E+000	...........	1411.33
	2	0.75	-7.85472E-002	-7.77342E-002	0.00000E+000	...........	1411.33
	3	1	-7.83990E-002	-7.73005E-002	0.00000E+000	...........	1411.33
	4	1.25	-7.81300E-002	-7.68736E-002	0.00000E+000	...........	1411.37
	5	1.5	-7.77652E-002	-7.64494E-002	0.00000E+000	...........	1411.42
	6	1.75	-7.73499E-002	-7.60292E-002	0.00000E+000	...........	1411.42
	7	2	-7.69190E-002	-7.56075E-002	0.00000E+000	...........	1411.42
	8	2.25	-7.64887E-002	-7.51848E-002	0.00000E+000	...........	1411.42
	9	2.5	-7.60629E-002	-7.47802E-002	0.00000E+000	...........	1411.42
	10	2.75	-7.56418E-002	-7.43780E-002	0.00000E+000	...........	1411.42
	11	3	-7.52259E-002	-7.39753E-002	0.00000E+000	...........	1411.42
	12	3.25	-7.48156E-002	-7.35759E-002	0.00000E+000	...........	1411.42
	13	3.5	-7.44102E-002	-7.31850E-002	0.00000E+000	...........	1411.42
	14	3.75	-7.40088E-002	-7.27948E-002	0.00000E+000	...........	1411.42
	15	4	-7.36114E-002	-7.24162E-002	0.00000E+000	...........	1411.42
	16	4.25	-7.32186E-002	-7.20383E-002	0.00000E+000	...........	1411.42
	17	4.5	-7.28308E-002	-7.16605E-002	0.00000E+000	...........	1411.42
	18	4.75	-7.24478E-002	-7.12890E-002	0.00000E+000	...........	1411.42
	19	5	-7.20685E-002	-7.09149E-002	0.00000E+000	...........	1411.42
	20	5.25	-7.16923E-002	-7.05505E-002	0.00000E+000	...........	1411.42
	21	5.5	-7.13187E-002	-7.01842E-002	0.00000E+000	...........	1411.42
	22	5.75	-7.09479E-002	-6.98246E-002	0.00000E+000	...........	1411.42
	23	6	-7.05803E-002	-6.94664E-002	0.00000E+000	...........	1411.42
	24	6.25	-7.02158E-002	-6.91091E-002	0.00000E+000	...........	1411.42
	25	6.5	-6.98544E-002	-6.87605E-002	0.00000E+000	...........	1411.42
	26	6.75	-6.94961E-002	-6.84146E-002	0.00000E+000	...........	1411.42
	27	7	-6.91414E-002	-6.80711E-002	0.00000E+000	...........	1411.42
	28	7.25	-6.87905E-002	-6.77282E-002	0.00000E+000	...........	1411.42
	29	7.5	-6.84432E-002	-6.73907E-002	0.00000E+000	...........	1411.42
	30	7.75	-6.80990E-002	-6.70546E-002	0.00000E+000	...........	1411.42
	31	8	-6.77575E-002	-6.67206E-002	0.00000E+000	...........	1411.42
	32	8.25	-6.74186E-002	-6.63892E-002	0.00000E+000	...........	1411.42
	33	8.5	-6.70824E-002	-6.60660E-002	0.00000E+000	...........	1411.42
	34	8.75	-6.67491E-002	-6.57428E-002	0.00000E+000	...........	1411.42
	35	9	-6.64192E-002	-6.54218E-002	0.00000E+000	...........	1411.42
	36	9.25	-6.60927E-002	-6.51018E-002	0.00000E+000	...........	1411.42
	37	9.5	-6.57691E-002	-6.47884E-002	0.00000E+000	...........	1411.42
	38	9.75	-6.54482E-002	-6.44765E-002	0.00000E+000	...........	1411.42
	39	10	-6.51301E-002	-6.41683E-002	0.00000E+000	...........	1411.42
EOC	QUANT	-0.0651301	Open Circuit (V)
PSTATMODEL	IQUANT	64	Pstat Model
PSTATSECTION	LABEL	IFC1010-22099	Pstat Section
PSTATSERIALNO	LABEL	22099	Pstat Serial Number
CTRLMODE	IQUANT	1	Control Mode
ELECTROMETER	IQUANT	0	RE=0 or CS=1
IESTAB	IQUANT	0	I/E Stability
CASPEED	IQUANT	3	Control Amp Speed
CONVENTION	IQUANT	1	Current Convention
ICHRANGE	IQUANT	2	Ich Range
ICHRANGEMODE	TOGGLE	F	Ich Auto Range
ICHOFFSETENABLE	TOGGLE	T	Ich Offset Enable
ICHOFFSET	QUANT	0	Ich Offset (V)
ICHFILTER	IQUANT	4	Ich Filter
VCHRANGE	IQUANT	2	Vch Range
VCHRANGEMODE	TOGGLE	F	Vch Auto Range
VCHOFFSETENABLE	TOGGLE	T	Vch Offset Enable
VCHOFFSET	QUANT	0	Vch Offset (V)
VCHFILTER	IQUANT	4	Vch Filter
IERANGELOWERLIMIT	IQUANT	4	I/E Range Lower Limit
IERANGEMODE	TOGGLE	F	I/E AutoRange
IERANGE	IQUANT	7	I/E Range
ACHSELECT	IQUANT	0	Ach Select
ACHRANGE	IQUANT	2	Ach Range
ACHOFFSETENABLE	TOGGLE	F	Ach Offset Enable
ACHOFFSET	QUANT	0	Ach Offset (V)
ACHFILTER	IQUANT	1	Ach Filter
SENSECABLEID	IQUANT	14	Sense Cable ID
PWRCABLEID	IQUANT	14	Power Cable ID
DCCALDATE	LABEL	11/25/2025	DC Calibration Date
ACCALDATE	LABEL	9/8/2018	AC Calibration Date
FRAMEWORKVERSION	QUANT	7.07	Framework Version
INSTRUMENTVERSION	LABEL	4.34	Instrument Version
ZCURVE	TABLE
	Pt	Time	Freq	Zreal	Zimag	Zsig	Zmod	Zphz	Idc	Vdc	IERange
	#	s	Hz	ohm	ohm	V	ohm	°	A	V	#
	0	6	1004.464	88.29431	-39.68566	1	96.8031	-24.20249	-3.413701E-005	-1.399908	9
	1	9	800.3049	89.17142	-48.4368	1	101.4774	-28.51025	-3.302845E-005	-1.399905	9
	2	11	631.0096	90.30293	-59.84233	1	108.3315	-33.53181	-3.230399E-005	-1.399909	9
	3	13	498.6702	91.66219	-73.97459	1	117.7888	-38.90474	-3.175059E-005	-1.399903	9
	4	16	397.2458	93.14812	-90.96494	1	130.1967	-44.32063	-3.129358E-005	-1.399905	9
	5	18	319.6023	94.96004	-111.0879	1	146.1435	-49.47555	-3.096084E-005	-1.399908	9
	6	21	251.1161	97.6544	-139.0079	1	169.8811	-54.9116	-3.074717E-005	-1.399907	9
	7	23	200.8929	100.8654	-171.2785	1	198.7716	-59.50629	-3.054581E-005	-1.399907	9
	8	26	158.0056	105.7635	-214.7243	1	239.3584	-63.77723	-3.042749E-005	-1.399907	9
	9	28	125.558	112.34	-266.8566	1	289.5388	-67.17012	-3.030498E-005	-1.399908	9
	10	30	99.734	121.7347	-331.6944	1	353.3278	-69.84643	-2.986407E-005	-1.399898	8
	11	33	79.44915	135.1109	-410.982	1	432.6212	-71.80165	-2.982744E-005	-1.399879	8
	12	35	63.34459	154.3035	-508.439	1	531.3378	-73.11776	-2.973857E-005	-1.399877	8
	13	38	49.86702	184.8541	-636.729	1	663.0195	-73.81102	-2.967173E-005	-1.399879	8
	14	40	38.10976	235.4809	-814.6912	1	848.0406	-73.87843	-2.963044E-005	-1.399877	8
	15	42	31.25	289.9914	-974.562	1	1016.792	-73.42906	-2.956682E-005	-1.399883	8
	16	45	24.93351	377.5255	-1189.008	1	1247.503	-72.38467	-2.948277E-005	-1.39988	8
	17	47	19.94681	499.6599	-1436.684	1	1521.092	-70.823	-2.941474E-005	-1.399881	8
	18	50	15.57309	692.7393	-1751.765	1	1883.765	-68.42358	-2.934651E-005	-1.399881	8
	19	53	12.40079	937.514	-2070.961	1	2273.282	-65.64397	-2.927881E-005	-1.399881	8
	20	56	9.91015	1250.26	-2397.616	1	2704.018	-62.45979	-2.922197E-005	-1.399881	8
	21	60	7.971939	1626.051	-2711.07	1	3161.319	-59.04543	-2.914175E-005	-1.399881	8
	22	64	6.351626	2072.648	-2999.301	1	3645.775	-55.35383	-2.929565E-005	-1.399885	8
	23	68	4.970838	2644.867	-3268.549	1	4204.609	-51.02067	-2.933778E-005	-1.399885	8
	24	73	3.942389	3198.7	-3478.445	1	4725.597	-47.39905	-2.955273E-005	-1.399888	8
	25	79	3.16723	3737.716	-3657.052	1	5229.202	-44.37503	-2.959756E-005	-1.399888	8
	26	85	2.485419	4347.539	-3857.589	1	5812.236	-41.58277	-2.979E-005	-1.399884	8
	27	93	1.971194	4945.075	-4013.927	1	6369.095	-39.0663	-2.998166E-005	-1.399888	8
	28	102	1.605308	5464.646	-4127.353	1	6848.167	-37.06312	-3.025392E-005	-1.399889	8
	29	113	1.260081	6125	-4292.751	1	7479.528	-35.02498	-3.049454E-005	-1.399891	8
	30	126	1.001603	6762.07	-4449.894	1	8094.884	-33.34758	-3.060215E-005	-1.399893	8
