EXPLAIN
TAG	EISPOT
TITLE	LABEL	Potentiostatic EIS	Test &Identifier
DATE	LABEL	4/30/2026	Date
TIME	LABEL	13:15:44	Time
NOTES	NOTES	1	&Notes...
	
PSTAT	PSTAT	Rhea	Potentiostat
VDC	POTEN	-1.20000E+000	F	DC &Voltage (V)
FREQINIT	QUANT	1.00000E+003	Initial Fre&q. (Hz)
FREQFINAL	QUANT	1.00000E+000	Final Fre&q. (Hz)
PTSPERDEC	QUANT	1.00000E+001	Points/&decade
VAC	QUANT	1.00000E+001	AC &Voltage (mV rms)
AREA	QUANT	2.80000E-001	&Area (cm^2)
CONDIT	TWOPARAM	F	0.00000E+000	0.00000E+000	Conditionin&g	Time(s)	E(V)
DELAY	TWOPARAM	T	1.00000E+001	0.00000E+000	Init. De&lay	Time(s)	Stab.(mV/s)
SPEED	SELECTOR	2	&Optimize for:
ZGUESS	QUANT	2.86800E+005	E&stimated Z (ohms)
OCVCURVE	TABLE	40
	Pt	T	Vf	Vm	Ach	Over	Temp
	#	s	V vs. Ref.	V	V	bits	deg C
	0	0.25	7.96986E-003	7.96986E-003	0.00000E+000	...........	1415.63
	1	0.5	7.93394E-003	6.08930E-003	0.00000E+000	...........	1415.67
	2	0.75	7.73881E-003	5.64057E-003	0.00000E+000	...........	1415.72
	3	1	7.27787E-003	5.54268E-003	0.00000E+000	...........	1415.72
	4	1.25	6.64768E-003	5.59359E-003	0.00000E+000	...........	1415.72
	5	1.5	6.08825E-003	5.70793E-003	0.00000E+000	...........	1415.80
	6	1.75	5.75623E-003	5.82312E-003	0.00000E+000	...........	1415.90
	7	2	5.65092E-003	5.96603E-003	0.00000E+000	...........	1415.90
	8	2.25	5.69346E-003	6.10676E-003	0.00000E+000	...........	1415.90
	9	2.5	5.80760E-003	6.26518E-003	0.00000E+000	...........	1415.90
	10	2.75	5.94670E-003	6.30635E-003	0.00000E+000	...........	1415.90
	11	3	6.07842E-003	6.08446E-003	0.00000E+000	...........	1415.90
	12	3.25	6.16353E-003	5.93066E-003	0.00000E+000	...........	1415.90
	13	3.5	6.16849E-003	5.84769E-003	0.00000E+000	...........	1415.90
	14	3.75	6.09838E-003	5.81735E-003	0.00000E+000	...........	1415.90
	15	4	5.99487E-003	5.76388E-003	0.00000E+000	...........	1415.90
	16	4.25	5.89934E-003	5.75894E-003	0.00000E+000	...........	1415.90
	17	4.5	5.83019E-003	5.76410E-003	0.00000E+000	...........	1415.90
	18	4.75	5.78931E-003	5.80601E-003	0.00000E+000	...........	1415.90
	19	5	5.77425E-003	5.84682E-003	0.00000E+000	...........	1415.90
	20	5.25	5.78230E-003	5.91067E-003	0.00000E+000	...........	1415.90
	21	5.5	5.81018E-003	5.97965E-003	0.00000E+000	...........	1415.90
	22	5.75	5.85415E-003	6.04438E-003	0.00000E+000	...........	1415.90
	23	6	5.90971E-003	6.10055E-003	0.00000E+000	...........	1415.90
	24	6.25	5.97015E-003	6.09760E-003	0.00000E+000	...........	1415.90
	25	6.5	6.02569E-003	6.10374E-003	0.00000E+000	...........	1415.90
	26	6.75	6.06722E-003	6.11713E-003	0.00000E+000	...........	1415.90
	27	7	6.09285E-003	6.13396E-003	0.00000E+000	...........	1415.90
	28	7.25	6.10806E-003	6.13555E-003	0.00000E+000	...........	1415.90
	29	7.5	6.11909E-003	6.15196E-003	0.00000E+000	...........	1415.90
	30	7.75	6.12928E-003	6.17095E-003	0.00000E+000	...........	1415.90
	31	8	6.14050E-003	6.19041E-003	0.00000E+000	...........	1415.90
	32	8.25	6.15439E-003	6.22204E-003	0.00000E+000	...........	1415.90
	33	8.5	6.17214E-003	6.25015E-003	0.00000E+000	...........	1415.90
	34	8.75	6.19438E-003	6.28986E-003	0.00000E+000	...........	1415.90
	35	9	6.22184E-003	6.35668E-003	0.00000E+000	...........	1415.90
	36	9.25	6.25663E-003	6.42656E-003	0.00000E+000	...........	1415.90
	37	9.5	6.30190E-003	6.51003E-003	0.00000E+000	...........	1415.90
	38	9.75	6.35944E-003	6.59668E-003	0.00000E+000	...........	1415.90
	39	10	6.42853E-003	6.68516E-003	0.00000E+000	...........	1415.90
EOC	QUANT	0.0064285	Open Circuit (V)
PSTATMODEL	IQUANT	64	Pstat Model
PSTATSECTION	LABEL	IFC1010-22099	Pstat Section
PSTATSERIALNO	LABEL	22099	Pstat Serial Number
CTRLMODE	IQUANT	1	Control Mode
ELECTROMETER	IQUANT	0	RE=0 or CS=1
IESTAB	IQUANT	0	I/E Stability
CASPEED	IQUANT	3	Control Amp Speed
CONVENTION	IQUANT	1	Current Convention
ICHRANGE	IQUANT	2	Ich Range
ICHRANGEMODE	TOGGLE	F	Ich Auto Range
ICHOFFSETENABLE	TOGGLE	T	Ich Offset Enable
ICHOFFSET	QUANT	0	Ich Offset (V)
ICHFILTER	IQUANT	4	Ich Filter
VCHRANGE	IQUANT	2	Vch Range
VCHRANGEMODE	TOGGLE	F	Vch Auto Range
VCHOFFSETENABLE	TOGGLE	T	Vch Offset Enable
VCHOFFSET	QUANT	0	Vch Offset (V)
VCHFILTER	IQUANT	4	Vch Filter
IERANGELOWERLIMIT	IQUANT	4	I/E Range Lower Limit
IERANGEMODE	TOGGLE	F	I/E AutoRange
IERANGE	IQUANT	7	I/E Range
ACHSELECT	IQUANT	0	Ach Select
ACHRANGE	IQUANT	2	Ach Range
ACHOFFSETENABLE	TOGGLE	F	Ach Offset Enable
ACHOFFSET	QUANT	0	Ach Offset (V)
ACHFILTER	IQUANT	1	Ach Filter
SENSECABLEID	IQUANT	14	Sense Cable ID
PWRCABLEID	IQUANT	14	Power Cable ID
DCCALDATE	LABEL	11/25/2025	DC Calibration Date
ACCALDATE	LABEL	9/8/2018	AC Calibration Date
FRAMEWORKVERSION	QUANT	7.07	Framework Version
INSTRUMENTVERSION	LABEL	4.34	Instrument Version
ZCURVE	TABLE
	Pt	Time	Freq	Zreal	Zimag	Zsig	Zmod	Zphz	Idc	Vdc	IERange
	#	s	Hz	ohm	ohm	V	ohm	°	A	V	#
	0	6	1004.464	68.55209	-32.43968	1	75.84011	-25.32408	-6.448982E-005	-1.200014	9
	1	9	800.3049	68.65672	-38.88657	1	78.90444	-29.52684	-6.531605E-005	-1.20001	9
	2	11	631.0096	68.98062	-47.44207	1	83.72023	-34.51862	-6.5647E-005	-1.200013	9
	3	14	498.6702	69.53248	-58.19953	1	90.67497	-39.92974	-6.580675E-005	-1.200009	9
	4	16	397.2458	70.38073	-71.33534	1	100.2107	-45.38594	-6.587589E-005	-1.200008	9
	5	19	319.6023	71.51929	-86.96751	1	112.5982	-50.56721	-6.565983E-005	-1.200009	9
	6	21	251.1161	73.62057	-108.6247	1	131.2224	-55.87247	-6.609225E-005	-1.20001	9
	7	24	200.8929	76.42879	-133.6558	1	153.965	-60.23765	-6.585132E-005	-1.200008	9
	8	26	158.0056	80.76528	-167.045	1	185.5453	-64.1965	-6.477011E-005	-1.200007	9
	9	29	125.558	86.51627	-206.9179	1	224.2768	-67.30928	-6.357345E-005	-1.200007	9
	10	31	99.734	94.66077	-256.3303	1	273.2506	-69.73121	-6.265777E-005	-1.20001	9
	11	33	79.44915	105.831	-315.3943	1	332.6767	-71.45075	-6.200792E-005	-1.199998	9
	12	36	63.34459	120.7838	-388.479	1	406.8226	-72.72877	-6.095226E-005	-1.2	9
	13	38	49.86702	142.9448	-483.967	1	504.6358	-73.54494	-6.020598E-005	-1.199998	9
	14	41	38.10976	179.4757	-614.8082	1	640.4691	-73.72634	-5.948518E-005	-1.199968	8
	15	43	31.25	216.2665	-733.7293	1	764.9378	-73.57713	-5.881603E-005	-1.199968	8
	16	45	24.93351	273.131	-894.6587	1	935.4222	-73.02306	-5.795708E-005	-1.19997	8
	17	48	19.94681	350.5002	-1084.627	1	1139.854	-72.09162	-5.738757E-005	-1.19997	8
	18	50	15.57309	474.6208	-1336.497	1	1418.27	-70.44888	-5.67383E-005	-1.199972	8
	19	53	12.40079	629.7654	-1606.094	1	1725.15	-68.58936	-5.597013E-005	-1.199972	8
	20	56	9.91015	839.531	-1904.009	1	2080.881	-66.20597	-5.540558E-005	-1.199974	8
	21	58	7.971939	1107.107	-2218.453	1	2479.358	-63.47876	-5.496184E-005	-1.199974	8
	22	61	6.351626	1462.21	-2566.444	1	2953.759	-60.32803	-5.416056E-005	-1.199973	8
	23	65	4.970838	1947.122	-2933.519	1	3520.911	-56.4258	-5.33325E-005	-1.199974	8
	24	70	3.942389	2502.184	-3250.828	1	4102.293	-52.41429	-5.302969E-005	-1.199972	8
	25	73	3.16723	3086.436	-3513.996	1	4676.992	-48.70631	-5.273029E-005	-1.199973	8
	26	80	2.485419	3797.935	-3755.72	1	5341.324	-44.67979	-5.240146E-005	-1.199971	8
	27	88	1.971194	4498.451	-3961.957	1	5994.427	-41.3716	-5.216459E-005	-1.199974	8
	28	97	1.605308	5135.944	-4139.082	1	6596.205	-38.86551	-5.195343E-005	-1.199973	8
	29	108	1.260081	5904.026	-4298.976	1	7303.336	-36.05997	-5.193015E-005	-1.199972	8
	30	121	1.001603	6666.804	-4418.038	1	7997.833	-33.53212	-5.201099E-005	-1.199972	8
