EXPLAIN
TAG	EISPOT
TITLE	LABEL	Potentiostatic EIS	Test &Identifier
DATE	LABEL	4/30/2026	Date
TIME	LABEL	15:12:02	Time
NOTES	NOTES	1	&Notes...
	
PSTAT	PSTAT	Rhea	Potentiostat
VDC	POTEN	-1.60000E+000	F	DC &Voltage (V)
FREQINIT	QUANT	1.00000E+003	Initial Fre&q. (Hz)
FREQFINAL	QUANT	1.00000E+000	Final Fre&q. (Hz)
PTSPERDEC	QUANT	1.00000E+001	Points/&decade
VAC	QUANT	1.00000E+001	AC &Voltage (mV rms)
AREA	QUANT	2.80000E-001	&Area (cm^2)
CONDIT	TWOPARAM	F	0.00000E+000	0.00000E+000	Conditionin&g	Time(s)	E(V)
DELAY	TWOPARAM	T	1.00000E+001	0.00000E+000	Init. De&lay	Time(s)	Stab.(mV/s)
SPEED	SELECTOR	2	&Optimize for:
ZGUESS	QUANT	2.86800E+005	E&stimated Z (ohms)
OCVCURVE	TABLE	40
	Pt	T	Vf	Vm	Ach	Over	Temp
	#	s	V vs. Ref.	V	V	bits	deg C
	0	0.25	-1.69535E-001	-1.69535E-001	0.00000E+000	...........	1416.34
	1	0.5	-1.69527E-001	-1.69133E-001	0.00000E+000	...........	1416.34
	2	0.75	-1.69479E-001	-1.68728E-001	0.00000E+000	...........	1415.99
	3	1	-1.69343E-001	-1.68333E-001	0.00000E+000	...........	1415.99
	4	1.25	-1.69095E-001	-1.67923E-001	0.00000E+000	...........	1415.99
	5	1.5	-1.68757E-001	-1.67524E-001	0.00000E+000	...........	1415.99
	6	1.75	-1.68372E-001	-1.67196E-001	0.00000E+000	...........	1415.99
	7	2	-1.67975E-001	-1.66809E-001	0.00000E+000	...........	1415.99
	8	2.25	-1.67586E-001	-1.66414E-001	0.00000E+000	...........	1415.99
	9	2.5	-1.67206E-001	-1.66036E-001	0.00000E+000	...........	1415.99
	10	2.75	-1.66828E-001	-1.65677E-001	0.00000E+000	...........	1415.99
	11	3	-1.66451E-001	-1.65309E-001	0.00000E+000	...........	1415.99
	12	3.25	-1.66076E-001	-1.64956E-001	0.00000E+000	...........	1415.99
	13	3.5	-1.65707E-001	-1.64641E-001	0.00000E+000	...........	1415.99
	14	3.75	-1.65348E-001	-1.64307E-001	0.00000E+000	...........	1415.99
	15	4	-1.65000E-001	-1.63951E-001	0.00000E+000	...........	1415.99
	16	4.25	-1.64659E-001	-1.63588E-001	0.00000E+000	...........	1415.99
	17	4.5	-1.64318E-001	-1.63200E-001	0.00000E+000	...........	1415.99
	18	4.75	-1.63967E-001	-1.62846E-001	0.00000E+000	...........	1415.99
	19	5	-1.63608E-001	-1.62531E-001	0.00000E+000	...........	1415.99
	20	5.25	-1.63248E-001	-1.62188E-001	0.00000E+000	...........	1415.99
	21	5.5	-1.62894E-001	-1.61818E-001	0.00000E+000	...........	1415.99
	22	5.75	-1.62548E-001	-1.61513E-001	0.00000E+000	...........	1415.99
	23	6	-1.62206E-001	-1.61223E-001	0.00000E+000	...........	1415.99
	24	6.25	-1.61873E-001	-1.60907E-001	0.00000E+000	...........	1415.99
	25	6.5	-1.61550E-001	-1.60557E-001	0.00000E+000	...........	1415.99
	26	6.75	-1.61234E-001	-1.60264E-001	0.00000E+000	...........	1415.99
	27	7	-1.60917E-001	-1.59938E-001	0.00000E+000	...........	1415.99
	28	7.25	-1.60599E-001	-1.59599E-001	0.00000E+000	...........	1415.99
	29	7.5	-1.60279E-001	-1.59285E-001	0.00000E+000	...........	1415.99
	30	7.75	-1.59957E-001	-1.58970E-001	0.00000E+000	...........	1415.99
	31	8	-1.59634E-001	-1.58656E-001	0.00000E+000	...........	1415.99
	32	8.25	-1.59313E-001	-1.58336E-001	0.00000E+000	...........	1415.99
	33	8.5	-1.58995E-001	-1.58010E-001	0.00000E+000	...........	1415.99
	34	8.75	-1.58677E-001	-1.57692E-001	0.00000E+000	...........	1415.99
	35	9	-1.58358E-001	-1.57372E-001	0.00000E+000	...........	1415.99
	36	9.25	-1.58038E-001	-1.57073E-001	0.00000E+000	...........	1415.99
	37	9.5	-1.57720E-001	-1.56792E-001	0.00000E+000	...........	1415.99
	38	9.75	-1.57409E-001	-1.56496E-001	0.00000E+000	...........	1415.99
	39	10	-1.57106E-001	-1.56171E-001	0.00000E+000	...........	1415.99
EOC	QUANT	-0.1571057	Open Circuit (V)
PSTATMODEL	IQUANT	64	Pstat Model
PSTATSECTION	LABEL	IFC1010-22099	Pstat Section
PSTATSERIALNO	LABEL	22099	Pstat Serial Number
CTRLMODE	IQUANT	1	Control Mode
ELECTROMETER	IQUANT	0	RE=0 or CS=1
IESTAB	IQUANT	0	I/E Stability
CASPEED	IQUANT	3	Control Amp Speed
CONVENTION	IQUANT	1	Current Convention
ICHRANGE	IQUANT	2	Ich Range
ICHRANGEMODE	TOGGLE	F	Ich Auto Range
ICHOFFSETENABLE	TOGGLE	T	Ich Offset Enable
ICHOFFSET	QUANT	0	Ich Offset (V)
ICHFILTER	IQUANT	4	Ich Filter
VCHRANGE	IQUANT	2	Vch Range
VCHRANGEMODE	TOGGLE	F	Vch Auto Range
VCHOFFSETENABLE	TOGGLE	T	Vch Offset Enable
VCHOFFSET	QUANT	0	Vch Offset (V)
VCHFILTER	IQUANT	4	Vch Filter
IERANGELOWERLIMIT	IQUANT	4	I/E Range Lower Limit
IERANGEMODE	TOGGLE	F	I/E AutoRange
IERANGE	IQUANT	7	I/E Range
ACHSELECT	IQUANT	0	Ach Select
ACHRANGE	IQUANT	2	Ach Range
ACHOFFSETENABLE	TOGGLE	F	Ach Offset Enable
ACHOFFSET	QUANT	0	Ach Offset (V)
ACHFILTER	IQUANT	1	Ach Filter
SENSECABLEID	IQUANT	14	Sense Cable ID
PWRCABLEID	IQUANT	14	Power Cable ID
DCCALDATE	LABEL	11/25/2025	DC Calibration Date
ACCALDATE	LABEL	9/8/2018	AC Calibration Date
FRAMEWORKVERSION	QUANT	7.07	Framework Version
INSTRUMENTVERSION	LABEL	4.34	Instrument Version
ZCURVE	TABLE
	Pt	Time	Freq	Zreal	Zimag	Zsig	Zmod	Zphz	Idc	Vdc	IERange
	#	s	Hz	ohm	ohm	V	ohm	°	A	V	#
	0	6	1004.464	86.02449	-29.68773	1	91.00316	-19.03996	-7.939641E-005	-1.600055	9
	1	9	800.3049	86.87708	-36.24179	1	94.13338	-22.64403	-7.741593E-005	-1.600057	9
	2	11	631.0096	88.08019	-44.74651	1	98.7946	-26.93149	-7.714904E-005	-1.600056	9
	3	13	498.6702	89.68739	-55.16973	1	105.2973	-31.59707	-7.787569E-005	-1.600056	9
	4	16	397.2458	91.82639	-67.6088	1	114.0308	-36.36301	-7.893117E-005	-1.600057	9
	5	18	319.6023	94.67952	-82.10049	1	125.3184	-40.9299	-8.0355E-005	-1.600057	9
	6	21	251.1161	99.1782	-101.8225	1	142.1413	-45.75373	-8.22603E-005	-1.600055	9
	7	23	200.8929	105.2544	-124.0243	1	162.6669	-49.68009	-8.35441E-005	-1.600055	9
	8	25	158.0056	114.7091	-152.7578	1	191.0317	-53.09632	-8.541972E-005	-1.600056	9
	9	28	125.558	127.9189	-185.67	1	225.4697	-55.43478	-8.710067E-005	-1.600055	9
	10	30	99.734	146.947	-224.1318	1	268.0084	-56.75005	-8.882199E-005	-1.600055	9
	11	33	79.44915	173.7047	-267.1007	1	318.6159	-56.96269	-9.067848E-005	-1.600047	9
	12	35	63.34459	210.4731	-313.7906	1	377.8405	-56.14851	-9.244288E-005	-1.600049	9
	13	38	49.86702	263.5723	-364.5248	1	449.8318	-54.13092	-9.426457E-005	-1.600046	9
	14	40	38.10976	341.6247	-417.9715	1	539.8218	-50.73951	-0.0000962	-1.600046	9
	15	43	31.25	411.1718	-446.7081	1	607.1329	-47.37203	-0.0000978	-1.600045	9
	16	45	24.93351	499.5586	-467.1746	1	683.967	-43.0814	-0.0000996	-1.600045	9
	17	48	19.94681	590.5267	-468.4891	1	753.793	-38.42641	-0.0001015	-1.600045	9
	18	51	15.57309	687.9578	-450.5905	1	822.3853	-33.22352	-0.0001031	-1.600045	9
	19	54	12.40079	765.7295	-416.6449	1	871.7423	-28.55128	-0.0001049	-1.600046	9
	20	57	9.91015	825.6076	-371.037	1	905.15	-24.19967	-0.0001067	-1.600045	9
	21	60	7.971939	867.7775	-322.1328	1	925.6389	-20.36572	-0.0001086	-1.600045	9
	22	64	6.351626	894.6066	-270.3596	1	934.567	-16.81537	-0.000111	-1.600044	9
	23	69	4.970838	908.8756	-219.7325	1	935.06	-13.59121	-0.0001132	-1.600043	9
	24	74	3.942389	908.1934	-177.3212	1	925.3422	-11.04779	-0.0001157	-1.600044	9
	25	79	3.16723	896.3886	-142.5223	1	907.6481	-9.034187	-0.0001186	-1.600043	9
	26	86	2.485419	879.7861	-114.6572	1	887.2259	-7.425162	-0.0001224	-1.600044	9
	27	93	1.971194	854.4843	-91.09084	1	859.3259	-6.084938	-0.0001261	-1.600045	9
	28	103	1.605308	828.0319	-74.10892	1	831.3416	-5.114351	-0.0001298	-1.600046	9
	29	113	1.260081	794.6851	-58.91453	1	796.8659	-4.239906	-0.0001345	-1.600042	9
	30	127	1.001603	768.8961	-49.47232	1	770.486	-3.681451	-0.0001389	-1.60004	9
