EXPLAIN
TAG	EISPOT
TITLE	LABEL	Potentiostatic EIS	Test &Identifier
DATE	LABEL	4/30/2026	Date
TIME	LABEL	13:53:10	Time
NOTES	NOTES	1	&Notes...
	
PSTAT	PSTAT	Rhea	Potentiostat
VDC	POTEN	-1.40000E+000	F	DC &Voltage (V)
FREQINIT	QUANT	1.00000E+003	Initial Fre&q. (Hz)
FREQFINAL	QUANT	1.00000E+000	Final Fre&q. (Hz)
PTSPERDEC	QUANT	1.00000E+001	Points/&decade
VAC	QUANT	1.00000E+001	AC &Voltage (mV rms)
AREA	QUANT	2.80000E-001	&Area (cm^2)
CONDIT	TWOPARAM	F	0.00000E+000	0.00000E+000	Conditionin&g	Time(s)	E(V)
DELAY	TWOPARAM	T	1.00000E+001	0.00000E+000	Init. De&lay	Time(s)	Stab.(mV/s)
SPEED	SELECTOR	2	&Optimize for:
ZGUESS	QUANT	2.86800E+005	E&stimated Z (ohms)
OCVCURVE	TABLE	40
	Pt	T	Vf	Vm	Ach	Over	Temp
	#	s	V vs. Ref.	V	V	bits	deg C
	0	0.25	-2.96839E-001	-2.96839E-001	0.00000E+000	...........	1416.34
	1	0.5	-2.96813E-001	-2.95467E-001	0.00000E+000	...........	1415.81
	2	0.75	-2.96652E-001	-2.94167E-001	0.00000E+000	...........	1415.81
	3	1	-2.96196E-001	-2.92896E-001	0.00000E+000	...........	1415.81
	4	1.25	-2.95379E-001	-2.91654E-001	0.00000E+000	...........	1415.81
	5	1.5	-2.94285E-001	-2.90485E-001	0.00000E+000	...........	1415.81
	6	1.75	-2.93063E-001	-2.89370E-001	0.00000E+000	...........	1415.81
	7	2	-2.91824E-001	-2.88177E-001	0.00000E+000	...........	1415.81
	8	2.25	-2.90616E-001	-2.87039E-001	0.00000E+000	...........	1415.81
	9	2.5	-2.89439E-001	-2.85905E-001	0.00000E+000	...........	1415.90
	10	2.75	-2.88280E-001	-2.84742E-001	0.00000E+000	...........	1415.90
	11	3	-2.87132E-001	-2.83695E-001	0.00000E+000	...........	1415.90
	12	3.25	-2.85994E-001	-2.82546E-001	0.00000E+000	...........	1415.90
	13	3.5	-2.84870E-001	-2.81519E-001	0.00000E+000	...........	1415.90
	14	3.75	-2.83764E-001	-2.80501E-001	0.00000E+000	...........	1415.90
	15	4	-2.82679E-001	-2.79479E-001	0.00000E+000	...........	1415.90
	16	4.25	-2.81619E-001	-2.78433E-001	0.00000E+000	...........	1415.90
	17	4.5	-2.80580E-001	-2.77485E-001	0.00000E+000	...........	1415.90
	18	4.75	-2.79557E-001	-2.76490E-001	0.00000E+000	...........	1415.90
	19	5	-2.78549E-001	-2.75519E-001	0.00000E+000	...........	1415.90
	20	5.25	-2.77555E-001	-2.74566E-001	0.00000E+000	...........	1415.90
	21	5.5	-2.76574E-001	-2.73565E-001	0.00000E+000	...........	1415.81
	22	5.75	-2.75601E-001	-2.72713E-001	0.00000E+000	...........	1415.81
	23	6	-2.74640E-001	-2.71793E-001	0.00000E+000	...........	1415.81
	24	6.25	-2.73697E-001	-2.70906E-001	0.00000E+000	...........	1415.81
	25	6.5	-2.72776E-001	-2.70023E-001	0.00000E+000	...........	1415.81
	26	6.75	-2.71874E-001	-2.69230E-001	0.00000E+000	...........	1415.81
	27	7	-2.70988E-001	-2.68288E-001	0.00000E+000	...........	1415.81
	28	7.25	-2.70114E-001	-2.67346E-001	0.00000E+000	...........	1415.81
	29	7.5	-2.69239E-001	-2.66608E-001	0.00000E+000	...........	1415.90
	30	7.75	-2.68363E-001	-2.65817E-001	0.00000E+000	...........	1415.90
	31	8	-2.67504E-001	-2.64949E-001	0.00000E+000	...........	1415.90
	32	8.25	-2.66668E-001	-2.64143E-001	0.00000E+000	...........	1415.90
	33	8.5	-2.65846E-001	-2.63324E-001	0.00000E+000	...........	1415.81
	34	8.75	-2.65026E-001	-2.62509E-001	0.00000E+000	...........	1415.81
	35	9	-2.64208E-001	-2.61735E-001	0.00000E+000	...........	1415.81
	36	9.25	-2.63395E-001	-2.60954E-001	0.00000E+000	...........	1415.81
	37	9.5	-2.62593E-001	-2.60239E-001	0.00000E+000	...........	1415.81
	38	9.75	-2.61807E-001	-2.59491E-001	0.00000E+000	...........	1415.81
	39	10	-2.61040E-001	-2.58697E-001	0.00000E+000	...........	1415.81
EOC	QUANT	-0.2610398	Open Circuit (V)
PSTATMODEL	IQUANT	64	Pstat Model
PSTATSECTION	LABEL	IFC1010-22099	Pstat Section
PSTATSERIALNO	LABEL	22099	Pstat Serial Number
CTRLMODE	IQUANT	1	Control Mode
ELECTROMETER	IQUANT	0	RE=0 or CS=1
IESTAB	IQUANT	0	I/E Stability
CASPEED	IQUANT	3	Control Amp Speed
CONVENTION	IQUANT	1	Current Convention
ICHRANGE	IQUANT	2	Ich Range
ICHRANGEMODE	TOGGLE	F	Ich Auto Range
ICHOFFSETENABLE	TOGGLE	T	Ich Offset Enable
ICHOFFSET	QUANT	0	Ich Offset (V)
ICHFILTER	IQUANT	4	Ich Filter
VCHRANGE	IQUANT	2	Vch Range
VCHRANGEMODE	TOGGLE	F	Vch Auto Range
VCHOFFSETENABLE	TOGGLE	T	Vch Offset Enable
VCHOFFSET	QUANT	0	Vch Offset (V)
VCHFILTER	IQUANT	4	Vch Filter
IERANGELOWERLIMIT	IQUANT	4	I/E Range Lower Limit
IERANGEMODE	TOGGLE	F	I/E AutoRange
IERANGE	IQUANT	7	I/E Range
ACHSELECT	IQUANT	0	Ach Select
ACHRANGE	IQUANT	2	Ach Range
ACHOFFSETENABLE	TOGGLE	F	Ach Offset Enable
ACHOFFSET	QUANT	0	Ach Offset (V)
ACHFILTER	IQUANT	1	Ach Filter
SENSECABLEID	IQUANT	14	Sense Cable ID
PWRCABLEID	IQUANT	14	Power Cable ID
DCCALDATE	LABEL	11/25/2025	DC Calibration Date
ACCALDATE	LABEL	9/8/2018	AC Calibration Date
FRAMEWORKVERSION	QUANT	7.07	Framework Version
INSTRUMENTVERSION	LABEL	4.34	Instrument Version
ZCURVE	TABLE
	Pt	Time	Freq	Zreal	Zimag	Zsig	Zmod	Zphz	Idc	Vdc	IERange
	#	s	Hz	ohm	ohm	V	ohm	°	A	V	#
	0	8	1004.464	104.2487	-32.37996	1	109.1616	-17.25495	-4.137246E-005	-1.400041	9
	1	10	800.3049	104.8744	-39.70238	1	112.1379	-20.7352	-3.920225E-005	-1.400041	9
	2	12	631.0096	105.5827	-49.23569	1	116.4984	-25.00074	-3.795419E-005	-1.400044	9
	3	15	498.6702	106.7898	-61.13294	1	123.05	-29.78944	-3.749579E-005	-1.40004	9
	4	17	397.2458	108.5376	-75.41486	1	132.1659	-34.79261	-3.691382E-005	-1.400041	9
	5	20	319.6023	110.3859	-92.28087	1	143.8777	-39.8951	-3.671805E-005	-1.400041	9
	6	22	251.1161	113.4468	-115.5277	1	161.9161	-45.52069	-3.611449E-005	-1.400039	9
	7	25	200.8929	117.2702	-142.144	1	184.2749	-50.47703	-3.612274E-005	-1.400038	9
	8	27	158.0056	123.0092	-177.6798	1	216.105	-55.30481	-3.575543E-005	-1.400034	9
	9	29	125.558	130.7165	-219.6401	1	255.5945	-59.24146	-3.55777E-005	-1.400038	9
	10	32	99.734	141.5262	-271.5119	1	306.1836	-62.46912	-3.562206E-005	-1.40004	9
	11	34	79.44915	156.143	-334.3537	1	369.0163	-64.96745	-3.51021E-005	-1.400009	8
	12	37	63.34459	176.4109	-410.5565	1	446.8529	-66.74742	-3.507801E-005	-1.400008	8
	13	39	49.86702	206.6528	-509.1471	1	549.4872	-67.90873	-3.498773E-005	-1.40001	8
	14	41	38.10976	256.8626	-645.6616	1	694.8793	-68.30593	-3.47948E-005	-1.400011	8
	15	44	31.25	307.9064	-765.6724	1	825.264	-68.09304	-3.47179E-005	-1.400008	8
	16	47	24.93351	388.7445	-925.1358	1	1003.493	-67.20773	-3.479462E-005	-1.400011	8
	17	49	19.94681	499.0646	-1106.485	1	1213.826	-65.72291	-3.470788E-005	-1.400009	8
	18	52	15.57309	670.4925	-1330.291	1	1489.709	-63.251	-3.465968E-005	-1.400011	8
	19	55	12.40079	883.5168	-1549.72	1	1783.882	-60.31194	-3.466125E-005	-1.400012	8
	20	58	9.91015	1153.695	-1758.574	1	2103.234	-56.73351	-3.508286E-005	-1.400011	8
	21	62	7.971939	1470.184	-1944.959	1	2438.095	-52.91455	-3.481108E-005	-1.400012	8
	22	66	6.351626	1848.071	-2088.164	1	2788.511	-48.49048	-3.468077E-005	-1.40001	8
	23	70	4.970838	2283.403	-2187.668	1	3162.25	-43.77337	-3.466666E-005	-1.40001	8
	24	75	3.942389	2691.215	-2219	1	3488.065	-39.50676	-3.478105E-005	-1.400012	8
	25	81	3.16723	3061.127	-2220.737	1	3781.821	-35.95953	-3.521006E-005	-1.40001	8
	26	87	2.485419	3432.648	-2200.217	1	4077.257	-32.65857	-3.520081E-005	-1.40001	8
	27	95	1.971194	3788.386	-2186.675	1	4374.176	-29.99375	-3.536617E-005	-1.400009	8
	28	104	1.605308	4056.822	-2151.062	1	4591.827	-27.93402	-3.628908E-005	-1.40001	8
	29	115	1.260081	4487.101	-2205.589	1	4999.87	-26.17596	-3.563385E-005	-1.40001	8
	30	128	1.001603	4778.092	-2237.417	1	5276.001	-25.09208	-3.523835E-005	-1.400009	8
