EXPLAIN
TAG	EISPOT
TITLE	LABEL	Potentiostatic EIS	Test &Identifier
DATE	LABEL	4/30/2026	Date
TIME	LABEL	12:28:07	Time
NOTES	NOTES	1	&Notes...
	
PSTAT	PSTAT	Titan	Potentiostat
VDC	POTEN	-1.40000E+000	F	DC &Voltage (V)
FREQINIT	QUANT	1.00000E+003	Initial Fre&q. (Hz)
FREQFINAL	QUANT	1.00000E+000	Final Fre&q. (Hz)
PTSPERDEC	QUANT	1.00000E+001	Points/&decade
VAC	QUANT	1.00000E+001	AC &Voltage (mV rms)
AREA	QUANT	2.80000E-001	&Area (cm^2)
CONDIT	TWOPARAM	F	0.00000E+000	0.00000E+000	Conditionin&g	Time(s)	E(V)
DELAY	TWOPARAM	T	1.00000E+001	0.00000E+000	Init. De&lay	Time(s)	Stab.(mV/s)
SPEED	SELECTOR	2	&Optimize for:
ZGUESS	QUANT	2.86800E+005	E&stimated Z (ohms)
OCVCURVE	TABLE	40
	Pt	T	Vf	Vm	Ach	Over	Temp
	#	s	V vs. Ref.	V	V	bits	deg C
	0	0.25	-1.54644E-001	-1.54644E-001	0.00000E+000	...........	1410.36
	1	0.5	-1.54642E-001	-1.54538E-001	0.00000E+000	...........	1410.36
	2	0.75	-1.54630E-001	-1.54444E-001	0.00000E+000	...........	1409.84
	3	1	-1.54595E-001	-1.54344E-001	0.00000E+000	...........	1409.84
	4	1.25	-1.54533E-001	-1.54245E-001	0.00000E+000	...........	1409.84
	5	1.5	-1.54449E-001	-1.54142E-001	0.00000E+000	...........	1409.84
	6	1.75	-1.54354E-001	-1.54043E-001	0.00000E+000	...........	1409.66
	7	2	-1.54254E-001	-1.53949E-001	0.00000E+000	...........	1409.66
	8	2.25	-1.54153E-001	-1.53846E-001	0.00000E+000	...........	1409.66
	9	2.5	-1.54053E-001	-1.53749E-001	0.00000E+000	...........	1409.66
	10	2.75	-1.53954E-001	-1.53650E-001	0.00000E+000	...........	1409.92
	11	3	-1.53855E-001	-1.53552E-001	0.00000E+000	...........	1409.92
	12	3.25	-1.53756E-001	-1.53451E-001	0.00000E+000	...........	1409.92
	13	3.5	-1.53657E-001	-1.53355E-001	0.00000E+000	...........	1409.92
	14	3.75	-1.53559E-001	-1.53257E-001	0.00000E+000	...........	1410.01
	15	4	-1.53460E-001	-1.53161E-001	0.00000E+000	...........	1410.01
	16	4.25	-1.53363E-001	-1.53066E-001	0.00000E+000	...........	1410.01
	17	4.5	-1.53265E-001	-1.52966E-001	0.00000E+000	...........	1410.01
	18	4.75	-1.53169E-001	-1.52870E-001	0.00000E+000	...........	1410.10
	19	5	-1.53072E-001	-1.52776E-001	0.00000E+000	...........	1410.10
	20	5.25	-1.52975E-001	-1.52680E-001	0.00000E+000	...........	1410.10
	21	5.5	-1.52879E-001	-1.52585E-001	0.00000E+000	...........	1410.10
	22	5.75	-1.52783E-001	-1.52491E-001	0.00000E+000	...........	1410.01
	23	6	-1.52688E-001	-1.52395E-001	0.00000E+000	...........	1410.01
	24	6.25	-1.52593E-001	-1.52302E-001	0.00000E+000	...........	1410.01
	25	6.5	-1.52498E-001	-1.52201E-001	0.00000E+000	...........	1410.01
	26	6.75	-1.52403E-001	-1.52109E-001	0.00000E+000	...........	1409.92
	27	7	-1.52307E-001	-1.52015E-001	0.00000E+000	...........	1409.92
	28	7.25	-1.52211E-001	-1.51917E-001	0.00000E+000	...........	1409.92
	29	7.5	-1.52116E-001	-1.51825E-001	0.00000E+000	...........	1409.92
	30	7.75	-1.52021E-001	-1.51733E-001	0.00000E+000	...........	1410.10
	31	8	-1.51927E-001	-1.51637E-001	0.00000E+000	...........	1410.10
	32	8.25	-1.51833E-001	-1.51542E-001	0.00000E+000	...........	1410.10
	33	8.5	-1.51739E-001	-1.51445E-001	0.00000E+000	...........	1410.10
	34	8.75	-1.51644E-001	-1.51353E-001	0.00000E+000	...........	1409.57
	35	9	-1.51549E-001	-1.51259E-001	0.00000E+000	...........	1409.57
	36	9.25	-1.51455E-001	-1.51169E-001	0.00000E+000	...........	1409.57
	37	9.5	-1.51361E-001	-1.51075E-001	0.00000E+000	...........	1409.57
	38	9.75	-1.51268E-001	-1.50981E-001	0.00000E+000	...........	1409.66
	39	10	-1.51175E-001	-1.50890E-001	0.00000E+000	...........	1409.66
EOC	QUANT	-0.1511749	Open Circuit (V)
PSTATMODEL	IQUANT	64	Pstat Model
PSTATSECTION	LABEL	IFC1010-22093	Pstat Section
PSTATSERIALNO	LABEL	22093	Pstat Serial Number
CTRLMODE	IQUANT	1	Control Mode
ELECTROMETER	IQUANT	0	RE=0 or CS=1
IESTAB	IQUANT	0	I/E Stability
CASPEED	IQUANT	3	Control Amp Speed
CONVENTION	IQUANT	1	Current Convention
ICHRANGE	IQUANT	2	Ich Range
ICHRANGEMODE	TOGGLE	F	Ich Auto Range
ICHOFFSETENABLE	TOGGLE	T	Ich Offset Enable
ICHOFFSET	QUANT	0	Ich Offset (V)
ICHFILTER	IQUANT	4	Ich Filter
VCHRANGE	IQUANT	2	Vch Range
VCHRANGEMODE	TOGGLE	F	Vch Auto Range
VCHOFFSETENABLE	TOGGLE	T	Vch Offset Enable
VCHOFFSET	QUANT	0	Vch Offset (V)
VCHFILTER	IQUANT	4	Vch Filter
IERANGELOWERLIMIT	IQUANT	4	I/E Range Lower Limit
IERANGEMODE	TOGGLE	F	I/E AutoRange
IERANGE	IQUANT	7	I/E Range
ACHSELECT	IQUANT	0	Ach Select
ACHRANGE	IQUANT	2	Ach Range
ACHOFFSETENABLE	TOGGLE	F	Ach Offset Enable
ACHOFFSET	QUANT	0	Ach Offset (V)
ACHFILTER	IQUANT	1	Ach Filter
SENSECABLEID	IQUANT	14	Sense Cable ID
PWRCABLEID	IQUANT	14	Power Cable ID
DCCALDATE	LABEL	11/25/2025	DC Calibration Date
ACCALDATE	LABEL	8/31/2018	AC Calibration Date
FRAMEWORKVERSION	QUANT	7.07	Framework Version
INSTRUMENTVERSION	LABEL	4.34	Instrument Version
ZCURVE	TABLE
	Pt	Time	Freq	Zreal	Zimag	Zsig	Zmod	Zphz	Idc	Vdc	IERange
	#	s	Hz	ohm	ohm	V	ohm	°	A	V	#
	0	7	1004.464	96.495	-35.75338	1	102.9057	-20.3307	-5.595254E-005	-1.399725	9
	1	10	800.3049	97.2924	-43.68595	1	106.6502	-24.1809	-4.647003E-005	-1.399724	9
	2	12	631.0096	98.3576	-54.08913	1	112.2491	-28.80742	-4.057383E-005	-1.399723	9
	3	15	498.6702	99.7232	-67.06255	1	120.1753	-33.92032	-3.655339E-005	-1.399723	9
	4	17	397.2458	101.3925	-82.71795	1	130.8537	-39.20823	-3.37083E-005	-1.399724	9
	5	19	319.6023	103.4395	-101.3163	1	144.792	-44.40589	-3.151121E-005	-1.399725	9
	6	22	251.1161	106.5537	-127.0273	1	165.8	-50.00924	-2.985169E-005	-1.399726	9
	7	24	200.8929	110.5273	-156.7038	1	191.7612	-54.8037	-2.866718E-005	-1.399725	9
	8	27	158.0056	116.4586	-196.344	1	228.284	-59.32631	-2.769285E-005	-1.399724	9
	9	29	125.558	124.4539	-243.6222	1	273.57	-62.93988	-2.684774E-005	-1.399722	9
	10	31	99.734	135.8259	-302.2058	1	331.3262	-65.79855	-2.585518E-005	-1.399713	8
	11	34	79.44915	151.482	-373.1495	1	402.7249	-67.90505	-2.532086E-005	-1.399708	8
	12	36	63.34459	173.3718	-459.4743	1	491.0951	-69.32719	-2.482415E-005	-1.399711	8
	13	39	49.86702	206.6002	-571.5162	1	607.7124	-70.12534	-2.438529E-005	-1.399714	8
	14	41	38.10976	261.5599	-726.2756	1	771.939	-70.19409	-2.393982E-005	-1.39971	8
	15	43	31.25	318.0178	-863.0681	1	919.7945	-69.77249	-2.361534E-005	-1.399708	8
	16	46	24.93351	405.9083	-1044.822	1	1120.899	-68.7691	-2.329479E-005	-1.39971	8
	17	48	19.94681	524.902	-1252.426	1	1357.974	-67.26103	-2.301437E-005	-1.399711	8
	18	51	15.57309	707.804	-1514.865	1	1672.065	-64.95618	-2.273484E-005	-1.399713	8
	19	54	12.40079	934.7781	-1779.264	1	2009.873	-62.28375	-2.250634E-005	-1.399712	8
	20	58	9.91015	1225.398	-2050.093	1	2388.406	-59.13206	-2.22694E-005	-1.399713	8
	21	61	7.971939	1574.933	-2308.082	1	2794.219	-55.69209	-2.198865E-005	-1.399711	8
	22	65	6.351626	2012.118	-2550.049	1	3248.288	-51.72477	-2.172689E-005	-1.399712	8
	23	69	4.970838	2546.815	-2761.103	1	3756.322	-47.31185	-2.143173E-005	-1.399714	8
	24	74	3.942389	3091.143	-2907.04	1	4243.353	-43.24197	-2.111027E-005	-1.399713	8
	25	80	3.16723	3617.886	-3005.357	1	4703.326	-39.71621	-2.075804E-005	-1.399711	8
	26	86	2.485419	4212.468	-3073.569	1	5214.568	-36.11584	-2.034354E-005	-1.399715	8
	27	94	1.971194	4759.642	-3149.172	1	5707.143	-33.49023	-1.991409E-005	-1.399715	8
	28	103	1.605308	5258.055	-3252.195	1	6182.549	-31.73749	-1.947338E-005	-1.399716	8
	29	114	1.260081	5832.658	-3372.437	1	6737.45	-30.03646	-1.910349E-005	-1.399715	8
	30	127	1.001603	6367.067	-3487.773	1	7259.759	-28.71319	-1.890835E-005	-1.399717	8
