EXPLAIN
TAG	EISPOT
TITLE	LABEL	Potentiostatic EIS	Test &Identifier
DATE	LABEL	4/30/2026	Date
TIME	LABEL	13:22:53	Time
NOTES	NOTES	1	&Notes...
	
PSTAT	PSTAT	Rhea	Potentiostat
VDC	POTEN	-1.60000E+000	F	DC &Voltage (V)
FREQINIT	QUANT	1.00000E+003	Initial Fre&q. (Hz)
FREQFINAL	QUANT	1.00000E+000	Final Fre&q. (Hz)
PTSPERDEC	QUANT	1.00000E+001	Points/&decade
VAC	QUANT	1.00000E+001	AC &Voltage (mV rms)
AREA	QUANT	2.80000E-001	&Area (cm^2)
CONDIT	TWOPARAM	F	0.00000E+000	0.00000E+000	Conditionin&g	Time(s)	E(V)
DELAY	TWOPARAM	T	1.00000E+001	0.00000E+000	Init. De&lay	Time(s)	Stab.(mV/s)
SPEED	SELECTOR	2	&Optimize for:
ZGUESS	QUANT	2.86800E+005	E&stimated Z (ohms)
OCVCURVE	TABLE	40
	Pt	T	Vf	Vm	Ach	Over	Temp
	#	s	V vs. Ref.	V	V	bits	deg C
	0	0.25	-2.09383E-001	-2.09383E-001	0.00000E+000	...........	1415.28
	1	0.5	-2.09381E-001	-2.09280E-001	0.00000E+000	...........	1415.28
	2	0.75	-2.09370E-001	-2.09209E-001	0.00000E+000	...........	1415.48
	3	1	-2.09337E-001	-2.09042E-001	0.00000E+000	...........	1415.90
	4	1.25	-2.09272E-001	-2.08851E-001	0.00000E+000	...........	1415.90
	5	1.5	-2.09171E-001	-2.08719E-001	0.00000E+000	...........	1415.90
	6	1.75	-2.09039E-001	-2.08590E-001	0.00000E+000	...........	1415.87
	7	2	-2.08896E-001	-2.08725E-001	0.00000E+000	...........	1415.81
	8	2.25	-2.08770E-001	-2.08354E-001	0.00000E+000	...........	1415.81
	9	2.5	-2.08661E-001	-2.08019E-001	0.00000E+000	...........	1415.81
	10	2.75	-2.08524E-001	-2.07726E-001	0.00000E+000	...........	1415.81
	11	3	-2.08324E-001	-2.07582E-001	0.00000E+000	...........	1415.81
	12	3.25	-2.08078E-001	-2.07401E-001	0.00000E+000	...........	1415.81
	13	3.5	-2.07831E-001	-2.07257E-001	0.00000E+000	...........	1415.81
	14	3.75	-2.07614E-001	-2.07112E-001	0.00000E+000	...........	1415.81
	15	4	-2.07430E-001	-2.06959E-001	0.00000E+000	...........	1415.81
	16	4.25	-2.07269E-001	-2.06814E-001	0.00000E+000	...........	1415.81
	17	4.5	-2.07118E-001	-2.06659E-001	0.00000E+000	...........	1415.81
	18	4.75	-2.06969E-001	-2.06431E-001	0.00000E+000	...........	1415.84
	19	5	-2.06811E-001	-2.06224E-001	0.00000E+000	...........	1415.90
	20	5.25	-2.06638E-001	-2.06053E-001	0.00000E+000	...........	1415.90
	21	5.5	-2.06452E-001	-2.05924E-001	0.00000E+000	...........	1415.90
	22	5.75	-2.06267E-001	-2.05838E-001	0.00000E+000	...........	1415.87
	23	6	-2.06100E-001	-2.05729E-001	0.00000E+000	...........	1415.81
	24	6.25	-2.05959E-001	-2.05543E-001	0.00000E+000	...........	1415.81
	25	6.5	-2.05830E-001	-2.05367E-001	0.00000E+000	...........	1415.81
	26	6.75	-2.05698E-001	-2.05235E-001	0.00000E+000	...........	1415.81
	27	7	-2.05554E-001	-2.05180E-001	0.00000E+000	...........	1415.81
	28	7.25	-2.05411E-001	-2.05057E-001	0.00000E+000	...........	1415.81
	29	7.5	-2.05281E-001	-2.04873E-001	0.00000E+000	...........	1415.81
	30	7.75	-2.05160E-001	-2.04727E-001	0.00000E+000	...........	1415.81
	31	8	-2.05032E-001	-2.04624E-001	0.00000E+000	...........	1415.81
	32	8.25	-2.04896E-001	-2.04470E-001	0.00000E+000	...........	1415.81
	33	8.5	-2.04756E-001	-2.04261E-001	0.00000E+000	...........	1415.81
	34	8.75	-2.04611E-001	-2.04094E-001	0.00000E+000	...........	1415.81
	35	9	-2.04455E-001	-2.03977E-001	0.00000E+000	...........	1415.81
	36	9.25	-2.04293E-001	-2.03869E-001	0.00000E+000	...........	1415.81
	37	9.5	-2.04139E-001	-2.03742E-001	0.00000E+000	...........	1415.81
	38	9.75	-2.03999E-001	-2.03610E-001	0.00000E+000	...........	1415.81
	39	10	-2.03870E-001	-2.03474E-001	0.00000E+000	...........	1415.81
EOC	QUANT	-0.20387	Open Circuit (V)
PSTATMODEL	IQUANT	64	Pstat Model
PSTATSECTION	LABEL	IFC1010-22099	Pstat Section
PSTATSERIALNO	LABEL	22099	Pstat Serial Number
CTRLMODE	IQUANT	1	Control Mode
ELECTROMETER	IQUANT	0	RE=0 or CS=1
IESTAB	IQUANT	0	I/E Stability
CASPEED	IQUANT	3	Control Amp Speed
CONVENTION	IQUANT	1	Current Convention
ICHRANGE	IQUANT	2	Ich Range
ICHRANGEMODE	TOGGLE	F	Ich Auto Range
ICHOFFSETENABLE	TOGGLE	T	Ich Offset Enable
ICHOFFSET	QUANT	0	Ich Offset (V)
ICHFILTER	IQUANT	4	Ich Filter
VCHRANGE	IQUANT	2	Vch Range
VCHRANGEMODE	TOGGLE	F	Vch Auto Range
VCHOFFSETENABLE	TOGGLE	T	Vch Offset Enable
VCHOFFSET	QUANT	0	Vch Offset (V)
VCHFILTER	IQUANT	4	Vch Filter
IERANGELOWERLIMIT	IQUANT	4	I/E Range Lower Limit
IERANGEMODE	TOGGLE	F	I/E AutoRange
IERANGE	IQUANT	7	I/E Range
ACHSELECT	IQUANT	0	Ach Select
ACHRANGE	IQUANT	2	Ach Range
ACHOFFSETENABLE	TOGGLE	F	Ach Offset Enable
ACHOFFSET	QUANT	0	Ach Offset (V)
ACHFILTER	IQUANT	1	Ach Filter
SENSECABLEID	IQUANT	14	Sense Cable ID
PWRCABLEID	IQUANT	14	Power Cable ID
DCCALDATE	LABEL	11/25/2025	DC Calibration Date
ACCALDATE	LABEL	9/8/2018	AC Calibration Date
FRAMEWORKVERSION	QUANT	7.07	Framework Version
INSTRUMENTVERSION	LABEL	4.34	Instrument Version
ZCURVE	TABLE
	Pt	Time	Freq	Zreal	Zimag	Zsig	Zmod	Zphz	Idc	Vdc	IERange
	#	s	Hz	ohm	ohm	V	ohm	°	A	V	#
	0	10	1004.464	54.3005	-14.68719	1	56.25174	-15.13519	-0.000488	-1.600027	9
	1	12	800.3049	54.69958	-17.37884	1	57.39398	-17.62579	-0.0004815	-1.600029	9
	2	14	631.0096	55.67109	-21.13475	1	59.54786	-20.78857	-0.0004743	-1.600026	9
	3	17	498.6702	56.84345	-25.60365	1	62.3436	-24.24794	-0.0004733	-1.600028	9
	4	19	397.2458	58.39457	-30.80163	1	66.0202	-27.81049	-0.0004757	-1.600024	9
	5	22	319.6023	60.47026	-36.73986	1	70.75642	-31.28157	-0.0004761	-1.600029	9
	6	24	251.1161	63.57843	-44.07845	1	77.36359	-34.73328	-0.0004955	-1.600029	9
	7	26	200.8929	67.69499	-52.64671	1	85.75715	-37.87238	-0.000485	-1.600023	9
	8	29	158.0056	74.71209	-61.34923	1	96.6728	-39.39085	-0.000522	-1.600023	9
	9	31	125.558	82.87273	-72.5897	1	110.1687	-41.21569	-0.0005057	-1.600024	9
	10	33	99.734	94.16896	-84.16938	1	126.3023	-41.79074	-0.0005004	-1.600026	9
	11	36	79.44915	108.5316	-95.1134	1	144.3111	-41.23022	-0.0004964	-1.60002	9
	12	38	63.34459	126.1822	-104.0986	1	163.5801	-39.52217	-0.0004959	-1.600015	9
	13	41	49.86702	148.127	-109.4931	1	184.2019	-36.47122	-0.0004986	-1.600012	9
	14	43	38.10976	174.1018	-110.29	1	206.0954	-32.35344	-0.0005046	-1.600015	9
	15	45	31.25	193.3611	-108.0126	1	221.4841	-29.18798	-0.0004995	-1.600016	9
	16	48	24.93351	213.7606	-101.6991	1	236.7199	-25.4433	-0.0004944	-1.600017	9
	17	51	19.94681	231.3041	-94.30895	1	249.7914	-22.18206	-0.0004946	-1.600016	9
	18	54	15.57309	244.0172	-79.68479	1	256.6984	-18.08466	-0.0004995	-1.600014	9
	19	57	12.40079	237.995	-59.46824	1	245.3122	-14.02933	-0.000546	-1.600012	9
	20	61	9.91015	247.5438	-51.71838	1	252.8888	-11.80084	-0.0005305	-1.600008	9
	21	65	7.971939	253.4786	-45.02292	1	257.446	-10.07185	-0.0005247	-1.600011	9
	22	69	6.351626	252.9141	-36.99349	1	255.6052	-8.321586	-0.0005303	-1.60001	9
	23	73	4.970838	246.8685	-27.84347	1	248.4337	-6.435005	-0.0005397	-1.600012	9
	24	78	3.942389	247.7406	-22.1742	1	248.731	-5.114672	-0.0005356	-1.60001	9
	25	84	3.16723	244.6319	-17.50615	1	245.2575	-4.093175	-0.0005407	-1.600011	9
	26	90	2.485419	239.5546	-17.57977	1	240.1988	-4.197141	-0.0005468	-1.60001	9
	27	98	1.971194	235.1364	-11.68227	1	235.4264	-2.844283	-0.0005635	-1.60001	9
	28	107	1.605308	234.8491	-10.88151	1	235.1011	-2.652848	-0.0005652	-1.60001	9
	29	118	1.260081	222.0565	-6.209613	1	222.1433	-1.601808	-0.0005861	-1.60001	9
	30	137	1.001603	216.8454	-6.99599	1	216.9583	-1.847868	-0.0005845	-1.600008	9
