EXPLAIN
TAG	EISPOT
TITLE	LABEL	Potentiostatic EIS	Test &Identifier
DATE	LABEL	4/30/2026	Date
TIME	LABEL	12:39:03	Time
NOTES	NOTES	1	&Notes...
	
PSTAT	PSTAT	Rhea	Potentiostat
VDC	POTEN	-1.60000E+000	F	DC &Voltage (V)
FREQINIT	QUANT	1.00000E+003	Initial Fre&q. (Hz)
FREQFINAL	QUANT	1.00000E+000	Final Fre&q. (Hz)
PTSPERDEC	QUANT	1.00000E+001	Points/&decade
VAC	QUANT	1.00000E+001	AC &Voltage (mV rms)
AREA	QUANT	2.80000E-001	&Area (cm^2)
CONDIT	TWOPARAM	F	0.00000E+000	0.00000E+000	Conditionin&g	Time(s)	E(V)
DELAY	TWOPARAM	T	1.00000E+001	0.00000E+000	Init. De&lay	Time(s)	Stab.(mV/s)
SPEED	SELECTOR	2	&Optimize for:
ZGUESS	QUANT	2.86800E+005	E&stimated Z (ohms)
OCVCURVE	TABLE	40
	Pt	T	Vf	Vm	Ach	Over	Temp
	#	s	V vs. Ref.	V	V	bits	deg C
	0	0.25	-3.07727E-001	-3.07727E-001	0.00000E+000	...........	1415.72
	1	0.5	-3.07694E-001	-3.06041E-001	0.00000E+000	...........	1415.72
	2	0.75	-3.07496E-001	-3.04394E-001	0.00000E+000	...........	1415.28
	3	1	-3.06930E-001	-3.02778E-001	0.00000E+000	...........	1415.28
	4	1.25	-3.05908E-001	-3.01189E-001	0.00000E+000	...........	1415.28
	5	1.5	-3.04529E-001	-2.99609E-001	0.00000E+000	...........	1415.28
	6	1.75	-3.02970E-001	-2.98070E-001	0.00000E+000	...........	1415.28
	7	2	-3.01363E-001	-2.96534E-001	0.00000E+000	...........	1415.28
	8	2.25	-2.99769E-001	-2.95041E-001	0.00000E+000	...........	1415.28
	9	2.5	-2.98206E-001	-2.93542E-001	0.00000E+000	...........	1415.28
	10	2.75	-2.96674E-001	-2.92100E-001	0.00000E+000	...........	1415.19
	11	3	-2.95167E-001	-2.90672E-001	0.00000E+000	...........	1415.19
	12	3.25	-2.93685E-001	-2.89248E-001	0.00000E+000	...........	1415.19
	13	3.5	-2.92227E-001	-2.87839E-001	0.00000E+000	...........	1415.19
	14	3.75	-2.90789E-001	-2.86453E-001	0.00000E+000	...........	1415.28
	15	4	-2.89368E-001	-2.85079E-001	0.00000E+000	...........	1415.28
	16	4.25	-2.87962E-001	-2.83716E-001	0.00000E+000	...........	1415.28
	17	4.5	-2.86571E-001	-2.82364E-001	0.00000E+000	...........	1415.28
	18	4.75	-2.85194E-001	-2.81035E-001	0.00000E+000	...........	1415.28
	19	5	-2.83831E-001	-2.79699E-001	0.00000E+000	...........	1415.28
	20	5.25	-2.82481E-001	-2.78397E-001	0.00000E+000	...........	1415.28
	21	5.5	-2.81144E-001	-2.77142E-001	0.00000E+000	...........	1415.28
	22	5.75	-2.79824E-001	-2.75877E-001	0.00000E+000	...........	1415.28
	23	6	-2.78524E-001	-2.74613E-001	0.00000E+000	...........	1415.28
	24	6.25	-2.77244E-001	-2.73393E-001	0.00000E+000	...........	1415.28
	25	6.5	-2.75980E-001	-2.72187E-001	0.00000E+000	...........	1415.28
	26	6.75	-2.74733E-001	-2.71017E-001	0.00000E+000	...........	1415.28
	27	7	-2.73506E-001	-2.69865E-001	0.00000E+000	...........	1415.28
	28	7.25	-2.72302E-001	-2.68679E-001	0.00000E+000	...........	1415.28
	29	7.5	-2.71118E-001	-2.67558E-001	0.00000E+000	...........	1415.28
	30	7.75	-2.69950E-001	-2.66439E-001	0.00000E+000	...........	1415.28
	31	8	-2.68796E-001	-2.65337E-001	0.00000E+000	...........	1415.28
	32	8.25	-2.67658E-001	-2.64245E-001	0.00000E+000	...........	1415.28
	33	8.5	-2.66537E-001	-2.63163E-001	0.00000E+000	...........	1415.28
	34	8.75	-2.65431E-001	-2.62103E-001	0.00000E+000	...........	1415.28
	35	9	-2.64339E-001	-2.61082E-001	0.00000E+000	...........	1415.28
	36	9.25	-2.63264E-001	-2.60061E-001	0.00000E+000	...........	1415.28
	37	9.5	-2.62207E-001	-2.59062E-001	0.00000E+000	...........	1415.28
	38	9.75	-2.61170E-001	-2.58044E-001	0.00000E+000	...........	1415.28
	39	10	-2.60148E-001	-2.57032E-001	0.00000E+000	...........	1415.28
EOC	QUANT	-0.2601478	Open Circuit (V)
PSTATMODEL	IQUANT	64	Pstat Model
PSTATSECTION	LABEL	IFC1010-22099	Pstat Section
PSTATSERIALNO	LABEL	22099	Pstat Serial Number
CTRLMODE	IQUANT	1	Control Mode
ELECTROMETER	IQUANT	0	RE=0 or CS=1
IESTAB	IQUANT	0	I/E Stability
CASPEED	IQUANT	3	Control Amp Speed
CONVENTION	IQUANT	1	Current Convention
ICHRANGE	IQUANT	2	Ich Range
ICHRANGEMODE	TOGGLE	F	Ich Auto Range
ICHOFFSETENABLE	TOGGLE	T	Ich Offset Enable
ICHOFFSET	QUANT	0	Ich Offset (V)
ICHFILTER	IQUANT	4	Ich Filter
VCHRANGE	IQUANT	2	Vch Range
VCHRANGEMODE	TOGGLE	F	Vch Auto Range
VCHOFFSETENABLE	TOGGLE	T	Vch Offset Enable
VCHOFFSET	QUANT	0	Vch Offset (V)
VCHFILTER	IQUANT	4	Vch Filter
IERANGELOWERLIMIT	IQUANT	4	I/E Range Lower Limit
IERANGEMODE	TOGGLE	F	I/E AutoRange
IERANGE	IQUANT	7	I/E Range
ACHSELECT	IQUANT	0	Ach Select
ACHRANGE	IQUANT	2	Ach Range
ACHOFFSETENABLE	TOGGLE	F	Ach Offset Enable
ACHOFFSET	QUANT	0	Ach Offset (V)
ACHFILTER	IQUANT	1	Ach Filter
SENSECABLEID	IQUANT	14	Sense Cable ID
PWRCABLEID	IQUANT	14	Power Cable ID
DCCALDATE	LABEL	11/25/2025	DC Calibration Date
ACCALDATE	LABEL	9/8/2018	AC Calibration Date
FRAMEWORKVERSION	QUANT	7.07	Framework Version
INSTRUMENTVERSION	LABEL	4.34	Instrument Version
ZCURVE	TABLE
	Pt	Time	Freq	Zreal	Zimag	Zsig	Zmod	Zphz	Idc	Vdc	IERange
	#	s	Hz	ohm	ohm	V	ohm	°	A	V	#
	0	6	1004.464	78.54697	-28.20625	1	83.45789	-19.75323	-8.310792E-005	-1.600034	9
	1	9	800.3049	79.32845	-34.61647	1	86.55231	-23.57496	-8.083399E-005	-1.600034	9
	2	11	631.0096	80.40192	-42.9222	1	91.14156	-28.09533	-8.065887E-005	-1.600033	9
	3	13	498.6702	81.93073	-53.11315	1	97.6404	-32.95409	-8.105794E-005	-1.600033	9
	4	16	397.2458	83.93031	-65.17361	1	106.2633	-37.83008	-8.242094E-005	-1.600031	9
	5	19	319.6023	86.58117	-79.23611	1	117.3655	-42.46368	-8.370919E-005	-1.600033	9
	6	21	251.1161	90.73272	-98.3086	1	133.7797	-47.29493	-8.559002E-005	-1.600029	9
	7	23	200.8929	96.1932	-119.6768	1	153.5437	-51.20855	-8.755599E-005	-1.60003	9
	8	26	158.0056	104.632	-147.603	1	180.9268	-54.66813	-8.910711E-005	-1.600029	9
	9	28	125.558	116.3394	-179.4035	1	213.8234	-57.03743	-9.154561E-005	-1.600028	9
	10	31	99.734	132.9942	-217.1142	1	254.6095	-58.51028	-9.285728E-005	-1.600031	9
	11	33	79.44915	156.1572	-259.7088	1	303.0408	-58.98243	-9.438891E-005	-1.600021	9
	12	35	63.34459	188.1492	-307.0187	1	360.0841	-58.49893	-0.0000959	-1.600017	9
	13	38	49.86702	234.8091	-360.5724	1	430.288	-56.92733	-0.0000976	-1.600019	9
	14	40	38.10976	304.8627	-421.4807	1	520.1801	-54.12128	-0.0000994	-1.600022	9
	15	43	31.25	370.0423	-459.9948	1	590.3614	-51.1851	-0.0001011	-1.60002	9
	16	46	24.93351	456.985	-493.9697	1	672.9349	-47.22724	-0.000103	-1.60002	9
	17	48	19.94681	552.3794	-510.9564	1	752.4622	-42.76913	-0.0001049	-1.600021	9
	18	51	15.57309	661.3333	-507.0714	1	833.3565	-37.47886	-0.0001069	-1.600018	9
	19	54	12.40079	753.6482	-478.6712	1	892.8111	-32.42121	-0.000109	-1.600018	9
	20	57	9.91015	829.0786	-433.3386	1	935.4965	-27.59494	-0.000111	-1.600019	9
	21	61	7.971939	879.8349	-376.5732	1	957.035	-23.17114	-0.0001136	-1.600019	9
	22	64	6.351626	915.5656	-317.4115	1	969.026	-19.12059	-0.0001161	-1.600021	9
	23	69	4.970838	932.6558	-256.9283	1	967.398	-15.40183	-0.0001183	-1.600021	9
	24	74	3.942389	927.7966	-204.1034	1	949.9814	-12.40672	-0.0001212	-1.600019	9
	25	79	3.16723	906.2505	-160.6343	1	920.3768	-10.05137	-0.0001255	-1.600017	9
	26	86	2.485419	881.2835	-127.5353	1	890.4639	-8.234417	-0.0001295	-1.60002	9
	27	94	1.971194	848.8526	-99.8938	1	854.7102	-6.711751	-0.0001344	-1.600019	9
	28	103	1.605308	811.8254	-81.24497	1	815.8806	-5.714956	-0.0001392	-1.600016	9
	29	114	1.260081	768.6777	-65.22379	1	771.4399	-4.85004	-0.0001456	-1.600016	9
	30	127	1.001603	741.5842	-53.59185	1	743.5182	-4.133392	-0.0001497	-1.60002	9
