EXPLAIN
TAG	EISPOT
TITLE	LABEL	Potentiostatic EIS	Test &Identifier
DATE	LABEL	4/30/2026	Date
TIME	LABEL	13:50:35	Time
NOTES	NOTES	1	&Notes...
	
PSTAT	PSTAT	Rhea	Potentiostat
VDC	POTEN	-1.20000E+000	F	DC &Voltage (V)
FREQINIT	QUANT	1.00000E+003	Initial Fre&q. (Hz)
FREQFINAL	QUANT	1.00000E+000	Final Fre&q. (Hz)
PTSPERDEC	QUANT	1.00000E+001	Points/&decade
VAC	QUANT	1.00000E+001	AC &Voltage (mV rms)
AREA	QUANT	2.80000E-001	&Area (cm^2)
CONDIT	TWOPARAM	F	0.00000E+000	0.00000E+000	Conditionin&g	Time(s)	E(V)
DELAY	TWOPARAM	T	1.00000E+001	0.00000E+000	Init. De&lay	Time(s)	Stab.(mV/s)
SPEED	SELECTOR	2	&Optimize for:
ZGUESS	QUANT	2.86800E+005	E&stimated Z (ohms)
OCVCURVE	TABLE	40
	Pt	T	Vf	Vm	Ach	Over	Temp
	#	s	V vs. Ref.	V	V	bits	deg C
	0	0.25	-3.01759E-001	-3.01759E-001	0.00000E+000	...........	1416.16
	1	0.5	-3.01726E-001	-3.00034E-001	0.00000E+000	...........	1416.16
	2	0.75	-3.01523E-001	-2.98365E-001	0.00000E+000	...........	1416.16
	3	1	-3.00946E-001	-2.96722E-001	0.00000E+000	...........	1416.16
	4	1.25	-2.99905E-001	-2.95117E-001	0.00000E+000	...........	1415.81
	5	1.5	-2.98504E-001	-2.93542E-001	0.00000E+000	...........	1415.81
	6	1.75	-2.96925E-001	-2.92014E-001	0.00000E+000	...........	1415.81
	7	2	-2.95306E-001	-2.90545E-001	0.00000E+000	...........	1415.81
	8	2.25	-2.93716E-001	-2.89135E-001	0.00000E+000	...........	1415.81
	9	2.5	-2.92179E-001	-2.87705E-001	0.00000E+000	...........	1415.81
	10	2.75	-2.90693E-001	-2.86271E-001	0.00000E+000	...........	1415.81
	11	3	-2.89244E-001	-2.84954E-001	0.00000E+000	...........	1415.81
	12	3.25	-2.87824E-001	-2.83662E-001	0.00000E+000	...........	1415.81
	13	3.5	-2.86436E-001	-2.82314E-001	0.00000E+000	...........	1415.81
	14	3.75	-2.85080E-001	-2.81013E-001	0.00000E+000	...........	1415.81
	15	4	-2.83749E-001	-2.79760E-001	0.00000E+000	...........	1415.81
	16	4.25	-2.82436E-001	-2.78527E-001	0.00000E+000	...........	1415.90
	17	4.5	-2.81144E-001	-2.77296E-001	0.00000E+000	...........	1415.90
	18	4.75	-2.79876E-001	-2.76092E-001	0.00000E+000	...........	1415.90
	19	5	-2.78631E-001	-2.74889E-001	0.00000E+000	...........	1415.90
	20	5.25	-2.77404E-001	-2.73742E-001	0.00000E+000	...........	1415.81
	21	5.5	-2.76196E-001	-2.72585E-001	0.00000E+000	...........	1415.81
	22	5.75	-2.75008E-001	-2.71456E-001	0.00000E+000	...........	1415.81
	23	6	-2.73840E-001	-2.70378E-001	0.00000E+000	...........	1415.81
	24	6.25	-2.72693E-001	-2.69265E-001	0.00000E+000	...........	1415.81
	25	6.5	-2.71566E-001	-2.68151E-001	0.00000E+000	...........	1415.81
	26	6.75	-2.70454E-001	-2.67099E-001	0.00000E+000	...........	1415.81
	27	7	-2.69354E-001	-2.66085E-001	0.00000E+000	...........	1415.81
	28	7.25	-2.68270E-001	-2.65067E-001	0.00000E+000	...........	1415.37
	29	7.5	-2.67209E-001	-2.64064E-001	0.00000E+000	...........	1415.37
	30	7.75	-2.66172E-001	-2.63066E-001	0.00000E+000	...........	1415.37
	31	8	-2.65151E-001	-2.62019E-001	0.00000E+000	...........	1415.37
	32	8.25	-2.64139E-001	-2.61013E-001	0.00000E+000	...........	1415.63
	33	8.5	-2.63127E-001	-2.60054E-001	0.00000E+000	...........	1415.63
	34	8.75	-2.62118E-001	-2.59103E-001	0.00000E+000	...........	1415.63
	35	9	-2.61122E-001	-2.58191E-001	0.00000E+000	...........	1415.63
	36	9.25	-2.60147E-001	-2.57261E-001	0.00000E+000	...........	1415.81
	37	9.5	-2.59195E-001	-2.56368E-001	0.00000E+000	...........	1415.81
	38	9.75	-2.58264E-001	-2.55490E-001	0.00000E+000	...........	1415.81
	39	10	-2.57348E-001	-2.54576E-001	0.00000E+000	...........	1415.81
EOC	QUANT	-0.2573482	Open Circuit (V)
PSTATMODEL	IQUANT	64	Pstat Model
PSTATSECTION	LABEL	IFC1010-22099	Pstat Section
PSTATSERIALNO	LABEL	22099	Pstat Serial Number
CTRLMODE	IQUANT	1	Control Mode
ELECTROMETER	IQUANT	0	RE=0 or CS=1
IESTAB	IQUANT	0	I/E Stability
CASPEED	IQUANT	3	Control Amp Speed
CONVENTION	IQUANT	1	Current Convention
ICHRANGE	IQUANT	2	Ich Range
ICHRANGEMODE	TOGGLE	F	Ich Auto Range
ICHOFFSETENABLE	TOGGLE	T	Ich Offset Enable
ICHOFFSET	QUANT	0	Ich Offset (V)
ICHFILTER	IQUANT	4	Ich Filter
VCHRANGE	IQUANT	2	Vch Range
VCHRANGEMODE	TOGGLE	F	Vch Auto Range
VCHOFFSETENABLE	TOGGLE	T	Vch Offset Enable
VCHOFFSET	QUANT	0	Vch Offset (V)
VCHFILTER	IQUANT	4	Vch Filter
IERANGELOWERLIMIT	IQUANT	4	I/E Range Lower Limit
IERANGEMODE	TOGGLE	F	I/E AutoRange
IERANGE	IQUANT	7	I/E Range
ACHSELECT	IQUANT	0	Ach Select
ACHRANGE	IQUANT	2	Ach Range
ACHOFFSETENABLE	TOGGLE	F	Ach Offset Enable
ACHOFFSET	QUANT	0	Ach Offset (V)
ACHFILTER	IQUANT	1	Ach Filter
SENSECABLEID	IQUANT	14	Sense Cable ID
PWRCABLEID	IQUANT	14	Power Cable ID
DCCALDATE	LABEL	11/25/2025	DC Calibration Date
ACCALDATE	LABEL	9/8/2018	AC Calibration Date
FRAMEWORKVERSION	QUANT	7.07	Framework Version
INSTRUMENTVERSION	LABEL	4.34	Instrument Version
ZCURVE	TABLE
	Pt	Time	Freq	Zreal	Zimag	Zsig	Zmod	Zphz	Idc	Vdc	IERange
	#	s	Hz	ohm	ohm	V	ohm	°	A	V	#
	0	7	1004.464	196.1905	-36.80676	1	199.6133	-10.62559	-3.623673E-005	-1.200016	9
	1	9	800.3049	193.5459	-44.93841	1	198.6945	-13.07159	-3.331004E-005	-1.200013	9
	2	12	631.0096	189.7594	-55.53331	1	197.7184	-16.31218	-3.186461E-005	-1.200018	9
	3	14	498.6702	189.7315	-68.73647	1	201.7988	-19.91458	-3.108529E-005	-1.200016	9
	4	16	397.2458	188.1236	-84.64091	1	206.2876	-24.22402	-3.064128E-005	-1.200017	9
	5	19	319.6023	184.6216	-103.4655	1	211.6371	-29.26712	-3.038543E-005	-1.200016	9
	6	21	251.1161	183.7199	-129.5265	1	224.7891	-35.18466	-3.0176E-005	-1.200011	9
	7	24	200.8929	183.2487	-159.5075	1	242.9459	-41.03771	-2.99906E-005	-1.20001	9
	8	26	158.0056	185.3867	-199.7549	1	272.5257	-47.1365	-2.958006E-005	-1.199996	8
	9	29	125.558	188.1051	-247.7498	1	311.0683	-52.79226	-2.958757E-005	-1.199998	8
	10	31	99.734	193.7216	-307.2783	1	363.2465	-57.77088	-2.952946E-005	-1.199997	8
	11	33	79.44915	202.8842	-380.2315	1	430.9733	-61.91647	-2.936629E-005	-1.199987	8
	12	36	63.34459	215.0343	-469.611	1	516.5019	-65.39701	-2.895834E-005	-1.199988	8
	13	38	49.86702	235.7701	-586.6918	1	632.2933	-68.1066	-2.879423E-005	-1.199988	8
	14	41	38.10976	273.6714	-751.6032	1	799.8771	-69.99258	-2.893944E-005	-1.199988	8
	15	43	31.25	311.9297	-902.0466	1	954.457	-70.92451	-2.848435E-005	-1.19999	8
	16	46	24.93351	376.4063	-1106.805	1	1169.059	-71.21767	-2.848035E-005	-1.199988	8
	17	48	19.94681	468.5667	-1350.002	1	1429.007	-70.85883	-2.833277E-005	-1.19999	8
	18	50	15.57309	618.3134	-1671.75	1	1782.431	-69.70259	-2.833414E-005	-1.199989	8
	19	53	12.40079	819.1403	-2017.057	1	2177.041	-67.8976	-2.825671E-005	-1.199989	8
	20	55	9.91015	1093.394	-2398.751	1	2636.194	-65.49566	-2.831143E-005	-1.19999	8
	21	58	7.971939	1453.94	-2799.174	1	3154.253	-62.55185	-2.812685E-005	-1.199989	8
	22	61	6.351626	1950.836	-3212.209	1	3758.197	-58.72889	-2.789615E-005	-1.19999	8
	23	65	4.970838	2626.435	-3608.087	1	4462.786	-53.948	-2.792502E-005	-1.199991	8
	24	70	3.942389	3374.613	-3871.87	1	5136.086	-48.92551	-2.787637E-005	-1.199991	8
	25	76	3.16723	4135.41	-4003.884	1	5756.101	-44.07421	-2.785035E-005	-1.199991	8
	26	82	2.485419	4952.343	-3988.632	1	6358.843	-38.84807	-2.784934E-005	-1.199991	8
	27	90	1.971194	5671.588	-3921.961	1	6895.556	-34.66426	-2.782361E-005	-1.199991	8
	28	99	1.605308	6228.096	-3806.809	1	7299.382	-31.4346	-2.774705E-005	-1.19999	8
	29	110	1.260081	6803.642	-3677.849	1	7734.088	-28.39436	-2.775289E-005	-1.199992	8
	30	123	1.001603	7284.86	-3500.643	1	8082.307	-25.666	-2.755705E-005	-1.199992	8
