EXPLAIN
TAG	EISPOT
TITLE	LABEL	Potentiostatic EIS	Test &Identifier
DATE	LABEL	4/30/2026	Date
TIME	LABEL	14:39:22	Time
NOTES	NOTES	1	&Notes...
	
PSTAT	PSTAT	Rhea	Potentiostat
VDC	POTEN	-1.20000E+000	F	DC &Voltage (V)
FREQINIT	QUANT	1.00000E+003	Initial Fre&q. (Hz)
FREQFINAL	QUANT	1.00000E+000	Final Fre&q. (Hz)
PTSPERDEC	QUANT	1.00000E+001	Points/&decade
VAC	QUANT	1.00000E+001	AC &Voltage (mV rms)
AREA	QUANT	2.80000E-001	&Area (cm^2)
CONDIT	TWOPARAM	F	0.00000E+000	0.00000E+000	Conditionin&g	Time(s)	E(V)
DELAY	TWOPARAM	T	1.00000E+001	0.00000E+000	Init. De&lay	Time(s)	Stab.(mV/s)
SPEED	SELECTOR	2	&Optimize for:
ZGUESS	QUANT	2.86800E+005	E&stimated Z (ohms)
OCVCURVE	TABLE	40
	Pt	T	Vf	Vm	Ach	Over	Temp
	#	s	V vs. Ref.	V	V	bits	deg C
	0	0.25	8.61863E-002	8.61863E-002	0.00000E+000	...........	1416.51
	1	0.5	8.62592E-002	9.00037E-002	0.00000E+000	...........	1416.33
	2	0.75	8.67069E-002	9.36117E-002	0.00000E+000	...........	1415.72
	3	1	8.79713E-002	9.70152E-002	0.00000E+000	...........	1415.72
	4	1.25	9.02269E-002	1.00258E-001	0.00000E+000	...........	1415.72
	5	1.5	9.32130E-002	1.03304E-001	0.00000E+000	...........	1415.74
	6	1.75	9.65028E-002	1.06187E-001	0.00000E+000	...........	1415.81
	7	2	9.97807E-002	1.08891E-001	0.00000E+000	...........	1415.81
	8	2.25	1.02900E-001	1.11427E-001	0.00000E+000	...........	1415.81
	9	2.5	1.05823E-001	1.13802E-001	0.00000E+000	...........	1415.81
	10	2.75	1.08555E-001	1.16019E-001	0.00000E+000	...........	1415.81
	11	3	1.11110E-001	1.18069E-001	0.00000E+000	...........	1415.81
	12	3.25	1.13499E-001	1.19970E-001	0.00000E+000	...........	1415.81
	13	3.5	1.15726E-001	1.21731E-001	0.00000E+000	...........	1415.83
	14	3.75	1.17797E-001	1.23344E-001	0.00000E+000	...........	1415.90
	15	4	1.19715E-001	1.24828E-001	0.00000E+000	...........	1415.90
	16	4.25	1.21488E-001	1.26170E-001	0.00000E+000	...........	1415.90
	17	4.5	1.23118E-001	1.27397E-001	0.00000E+000	...........	1415.88
	18	4.75	1.24613E-001	1.28525E-001	0.00000E+000	...........	1415.81
	19	5	1.25979E-001	1.29548E-001	0.00000E+000	...........	1415.81
	20	5.25	1.27226E-001	1.30483E-001	0.00000E+000	...........	1415.81
	21	5.5	1.28364E-001	1.31341E-001	0.00000E+000	...........	1415.81
	22	5.75	1.29403E-001	1.32117E-001	0.00000E+000	...........	1415.81
	23	6	1.30351E-001	1.32817E-001	0.00000E+000	...........	1415.81
	24	6.25	1.31216E-001	1.33454E-001	0.00000E+000	...........	1415.81
	25	6.5	1.32002E-001	1.34022E-001	0.00000E+000	...........	1415.83
	26	6.75	1.32714E-001	1.34537E-001	0.00000E+000	...........	1415.90
	27	7	1.33357E-001	1.34993E-001	0.00000E+000	...........	1415.90
	28	7.25	1.33936E-001	1.35398E-001	0.00000E+000	...........	1415.90
	29	7.5	1.34456E-001	1.35755E-001	0.00000E+000	...........	1415.88
	30	7.75	1.34919E-001	1.36066E-001	0.00000E+000	...........	1415.81
	31	8	1.35331E-001	1.36334E-001	0.00000E+000	...........	1415.81
	32	8.25	1.35694E-001	1.36570E-001	0.00000E+000	...........	1415.81
	33	8.5	1.36011E-001	1.36768E-001	0.00000E+000	...........	1415.81
	34	8.75	1.36288E-001	1.36945E-001	0.00000E+000	...........	1415.81
	35	9	1.36527E-001	1.37100E-001	0.00000E+000	...........	1415.81
	36	9.25	1.36735E-001	1.37230E-001	0.00000E+000	...........	1415.81
	37	9.5	1.36915E-001	1.37335E-001	0.00000E+000	...........	1415.81
	38	9.75	1.37071E-001	1.37422E-001	0.00000E+000	...........	1415.81
	39	10	1.37203E-001	1.37491E-001	0.00000E+000	...........	1415.81
EOC	QUANT	0.1372025	Open Circuit (V)
PSTATMODEL	IQUANT	64	Pstat Model
PSTATSECTION	LABEL	IFC1010-22099	Pstat Section
PSTATSERIALNO	LABEL	22099	Pstat Serial Number
CTRLMODE	IQUANT	1	Control Mode
ELECTROMETER	IQUANT	0	RE=0 or CS=1
IESTAB	IQUANT	0	I/E Stability
CASPEED	IQUANT	3	Control Amp Speed
CONVENTION	IQUANT	1	Current Convention
ICHRANGE	IQUANT	2	Ich Range
ICHRANGEMODE	TOGGLE	F	Ich Auto Range
ICHOFFSETENABLE	TOGGLE	T	Ich Offset Enable
ICHOFFSET	QUANT	0	Ich Offset (V)
ICHFILTER	IQUANT	4	Ich Filter
VCHRANGE	IQUANT	2	Vch Range
VCHRANGEMODE	TOGGLE	F	Vch Auto Range
VCHOFFSETENABLE	TOGGLE	T	Vch Offset Enable
VCHOFFSET	QUANT	0	Vch Offset (V)
VCHFILTER	IQUANT	4	Vch Filter
IERANGELOWERLIMIT	IQUANT	4	I/E Range Lower Limit
IERANGEMODE	TOGGLE	F	I/E AutoRange
IERANGE	IQUANT	7	I/E Range
ACHSELECT	IQUANT	0	Ach Select
ACHRANGE	IQUANT	2	Ach Range
ACHOFFSETENABLE	TOGGLE	F	Ach Offset Enable
ACHOFFSET	QUANT	0	Ach Offset (V)
ACHFILTER	IQUANT	1	Ach Filter
SENSECABLEID	IQUANT	14	Sense Cable ID
PWRCABLEID	IQUANT	14	Power Cable ID
DCCALDATE	LABEL	11/25/2025	DC Calibration Date
ACCALDATE	LABEL	9/8/2018	AC Calibration Date
FRAMEWORKVERSION	QUANT	7.07	Framework Version
INSTRUMENTVERSION	LABEL	4.34	Instrument Version
ZCURVE	TABLE
	Pt	Time	Freq	Zreal	Zimag	Zsig	Zmod	Zphz	Idc	Vdc	IERange
	#	s	Hz	ohm	ohm	V	ohm	°	A	V	#
	0	5	1004.464	230.9566	-62.67077	1	239.3085	-15.18181	-2.03483E-005	-1.200009	8
	1	8	800.3049	224.0951	-72.75937	1	235.611	-17.98762	-2.015359E-005	-1.200009	8
	2	10	631.0096	219.4244	-85.84525	1	235.6194	-21.36689	-2.007411E-005	-1.200006	8
	3	12	498.6702	216.6516	-101.6208	1	239.3004	-25.129	-2.009438E-005	-1.200007	8
	4	15	397.2458	214.9814	-119.9839	1	246.1974	-29.16646	-2.016888E-005	-1.200008	8
	5	17	319.6023	214.4421	-140.9931	1	256.6408	-33.32444	-2.026335E-005	-1.200007	8
	6	20	251.1161	215.6731	-169.4409	1	274.2719	-38.15451	-2.030688E-005	-1.200008	8
	7	22	200.8929	217.5861	-201.4042	1	296.4918	-42.78826	-2.038187E-005	-1.200009	8
	8	24	158.0056	221.425	-243.9053	1	329.422	-47.76583	-2.045042E-005	-1.200008	8
	9	27	125.558	226.1019	-294.2252	1	371.0667	-52.45897	-2.051054E-005	-1.200005	8
	10	29	99.734	232.5271	-357.0511	1	426.0919	-56.92609	-2.057868E-005	-1.200005	8
	11	32	79.44915	240.4899	-434.2492	1	496.3948	-61.02204	-2.060609E-005	-1.199996	8
	12	34	63.34459	251.7454	-530.1771	1	586.9101	-64.6001	-2.062798E-005	-1.199993	8
	13	37	49.86702	270.4376	-657.8646	1	711.2821	-67.65322	-2.068327E-005	-1.199994	8
	14	39	38.10976	302.6479	-840.9512	1	893.7532	-70.20683	-2.071293E-005	-1.199994	8
	15	41	31.25	336.1339	-1008.387	1	1062.935	-71.5648	-2.073671E-005	-1.199995	8
	16	44	24.93351	392.6884	-1239.71	1	1300.417	-72.42397	-2.078284E-005	-1.199997	8
	17	46	19.94681	474.0975	-1518.283	1	1590.582	-72.65855	-2.080126E-005	-1.199994	8
	18	49	15.57309	608.2026	-1895.138	1	1990.342	-72.20712	-2.080783E-005	-1.199994	8
	19	51	12.40079	788.8575	-2311.317	1	2442.229	-71.15512	-2.080222E-005	-1.199996	8
	20	54	9.91015	1040.356	-2790.517	1	2978.141	-69.55363	-2.081608E-005	-1.199994	8
	21	57	7.971939	1381.462	-3318.249	1	3594.331	-67.39693	-2.085023E-005	-1.199998	8
	22	60	6.351626	1870.63	-3921.502	1	4344.817	-64.49799	-2.086301E-005	-1.199996	8
	23	63	4.970838	2572.201	-4597.185	1	5267.858	-60.77226	-2.087681E-005	-1.199995	8
	24	68	3.942389	3422.155	-5213.356	1	6236.203	-56.71828	-2.091396E-005	-1.199997	8
	25	74	3.16723	4388.528	-5710.588	1	7202.083	-52.4581	-2.097539E-005	-1.199997	8
	26	80	2.485419	5600.041	-6114.449	1	8291.377	-47.51437	-2.110969E-005	-1.199997	8
	27	88	1.971194	6829.403	-6303.664	1	9293.919	-42.70757	-2.117675E-005	-1.199998	8
	28	97	1.605308	7932.29	-6332.941	1	10150.24	-38.60299	-2.121995E-005	-1.199999	8
	29	108	1.260081	9148.637	-6176.584	1	11038.47	-34.02475	-2.122516E-005	-1.199998	8
	30	121	1.001603	10174.14	-5916.069	1	11769.16	-30.17718	-2.126157E-005	-1.199996	8
