EXPLAIN
TAG	EISPOT
TITLE	LABEL	Potentiostatic EIS	Test &Identifier
DATE	LABEL	4/30/2026	Date
TIME	LABEL	14:32:06	Time
NOTES	NOTES	1	&Notes...
	
PSTAT	PSTAT	Rhea	Potentiostat
VDC	POTEN	-1.60000E+000	F	DC &Voltage (V)
FREQINIT	QUANT	1.00000E+003	Initial Fre&q. (Hz)
FREQFINAL	QUANT	1.00000E+000	Final Fre&q. (Hz)
PTSPERDEC	QUANT	1.00000E+001	Points/&decade
VAC	QUANT	1.00000E+001	AC &Voltage (mV rms)
AREA	QUANT	2.80000E-001	&Area (cm^2)
CONDIT	TWOPARAM	F	0.00000E+000	0.00000E+000	Conditionin&g	Time(s)	E(V)
DELAY	TWOPARAM	T	1.00000E+001	0.00000E+000	Init. De&lay	Time(s)	Stab.(mV/s)
SPEED	SELECTOR	2	&Optimize for:
ZGUESS	QUANT	2.86800E+005	E&stimated Z (ohms)
OCVCURVE	TABLE	40
	Pt	T	Vf	Vm	Ach	Over	Temp
	#	s	V vs. Ref.	V	V	bits	deg C
	0	0.25	-2.72105E-001	-2.72105E-001	0.00000E+000	...........	1416.25
	1	0.5	-2.72093E-001	-2.71441E-001	0.00000E+000	...........	1416.07
	2	0.75	-2.72014E-001	-2.70772E-001	0.00000E+000	...........	1415.72
	3	1	-2.71789E-001	-2.70115E-001	0.00000E+000	...........	1415.72
	4	1.25	-2.71379E-001	-2.69462E-001	0.00000E+000	...........	1415.72
	5	1.5	-2.70822E-001	-2.68780E-001	0.00000E+000	...........	1415.72
	6	1.75	-2.70185E-001	-2.68131E-001	0.00000E+000	...........	1415.72
	7	2	-2.69519E-001	-2.67483E-001	0.00000E+000	...........	1415.72
	8	2.25	-2.68850E-001	-2.66829E-001	0.00000E+000	...........	1415.72
	9	2.5	-2.68189E-001	-2.66212E-001	0.00000E+000	...........	1415.72
	10	2.75	-2.67536E-001	-2.65575E-001	0.00000E+000	...........	1415.72
	11	3	-2.66893E-001	-2.64941E-001	0.00000E+000	...........	1415.72
	12	3.25	-2.66257E-001	-2.64341E-001	0.00000E+000	...........	1415.72
	13	3.5	-2.65627E-001	-2.63732E-001	0.00000E+000	...........	1415.72
	14	3.75	-2.65005E-001	-2.63122E-001	0.00000E+000	...........	1415.72
	15	4	-2.64389E-001	-2.62531E-001	0.00000E+000	...........	1415.72
	16	4.25	-2.63780E-001	-2.61943E-001	0.00000E+000	...........	1415.72
	17	4.5	-2.63178E-001	-2.61365E-001	0.00000E+000	...........	1415.72
	18	4.75	-2.62583E-001	-2.60795E-001	0.00000E+000	...........	1415.72
	19	5	-2.61995E-001	-2.60227E-001	0.00000E+000	...........	1415.72
	20	5.25	-2.61415E-001	-2.59662E-001	0.00000E+000	...........	1415.72
	21	5.5	-2.60842E-001	-2.59104E-001	0.00000E+000	...........	1415.72
	22	5.75	-2.60274E-001	-2.58568E-001	0.00000E+000	...........	1415.72
	23	6	-2.59712E-001	-2.58031E-001	0.00000E+000	...........	1415.72
	24	6.25	-2.59158E-001	-2.57474E-001	0.00000E+000	...........	1415.72
	25	6.5	-2.58611E-001	-2.56955E-001	0.00000E+000	...........	1415.72
	26	6.75	-2.58069E-001	-2.56449E-001	0.00000E+000	...........	1415.72
	27	7	-2.57532E-001	-2.55889E-001	0.00000E+000	...........	1415.72
	28	7.25	-2.57001E-001	-2.55369E-001	0.00000E+000	...........	1415.72
	29	7.5	-2.56471E-001	-2.54839E-001	0.00000E+000	...........	1415.72
	30	7.75	-2.55940E-001	-2.54298E-001	0.00000E+000	...........	1415.72
	31	8	-2.55409E-001	-2.53796E-001	0.00000E+000	...........	1415.72
	32	8.25	-2.54880E-001	-2.53280E-001	0.00000E+000	...........	1415.72
	33	8.5	-2.54355E-001	-2.52762E-001	0.00000E+000	...........	1415.72
	34	8.75	-2.53835E-001	-2.52271E-001	0.00000E+000	...........	1415.72
	35	9	-2.53321E-001	-2.51777E-001	0.00000E+000	...........	1415.72
	36	9.25	-2.52813E-001	-2.51274E-001	0.00000E+000	...........	1415.72
	37	9.5	-2.52311E-001	-2.50778E-001	0.00000E+000	...........	1415.72
	38	9.75	-2.51812E-001	-2.50306E-001	0.00000E+000	...........	1415.72
	39	10	-2.51317E-001	-2.49822E-001	0.00000E+000	...........	1415.72
EOC	QUANT	-0.2513173	Open Circuit (V)
PSTATMODEL	IQUANT	64	Pstat Model
PSTATSECTION	LABEL	IFC1010-22099	Pstat Section
PSTATSERIALNO	LABEL	22099	Pstat Serial Number
CTRLMODE	IQUANT	1	Control Mode
ELECTROMETER	IQUANT	0	RE=0 or CS=1
IESTAB	IQUANT	0	I/E Stability
CASPEED	IQUANT	3	Control Amp Speed
CONVENTION	IQUANT	1	Current Convention
ICHRANGE	IQUANT	2	Ich Range
ICHRANGEMODE	TOGGLE	F	Ich Auto Range
ICHOFFSETENABLE	TOGGLE	T	Ich Offset Enable
ICHOFFSET	QUANT	0	Ich Offset (V)
ICHFILTER	IQUANT	4	Ich Filter
VCHRANGE	IQUANT	2	Vch Range
VCHRANGEMODE	TOGGLE	F	Vch Auto Range
VCHOFFSETENABLE	TOGGLE	T	Vch Offset Enable
VCHOFFSET	QUANT	0	Vch Offset (V)
VCHFILTER	IQUANT	4	Vch Filter
IERANGELOWERLIMIT	IQUANT	4	I/E Range Lower Limit
IERANGEMODE	TOGGLE	F	I/E AutoRange
IERANGE	IQUANT	7	I/E Range
ACHSELECT	IQUANT	0	Ach Select
ACHRANGE	IQUANT	2	Ach Range
ACHOFFSETENABLE	TOGGLE	F	Ach Offset Enable
ACHOFFSET	QUANT	0	Ach Offset (V)
ACHFILTER	IQUANT	1	Ach Filter
SENSECABLEID	IQUANT	14	Sense Cable ID
PWRCABLEID	IQUANT	14	Power Cable ID
DCCALDATE	LABEL	11/25/2025	DC Calibration Date
ACCALDATE	LABEL	9/8/2018	AC Calibration Date
FRAMEWORKVERSION	QUANT	7.07	Framework Version
INSTRUMENTVERSION	LABEL	4.34	Instrument Version
ZCURVE	TABLE
	Pt	Time	Freq	Zreal	Zimag	Zsig	Zmod	Zphz	Idc	Vdc	IERange
	#	s	Hz	ohm	ohm	V	ohm	°	A	V	#
	0	6	1004.464	84.75039	-21.63662	1	87.46869	-14.32159	-5.701815E-005	-1.600058	9
	1	9	800.3049	85.38094	-26.59514	1	89.4271	-17.30119	-5.22005E-005	-1.600058	9
	2	11	631.0096	86.16927	-33.04389	1	92.28782	-20.98064	-4.948031E-005	-1.600059	9
	3	14	498.6702	87.15211	-41.03973	1	96.3315	-25.21564	-4.798801E-005	-1.600054	9
	4	16	397.2458	88.34648	-50.69143	1	101.8564	-29.84633	-4.705472E-005	-1.600055	9
	5	18	319.6023	89.8081	-62.10811	1	109.1921	-34.66637	-4.645023E-005	-1.600055	9
	6	21	251.1161	91.97846	-77.83112	1	120.4895	-40.23751	-4.620549E-005	-1.600054	9
	7	23	200.8929	94.73649	-95.8982	1	134.8016	-45.34916	-4.603911E-005	-1.600054	9
	8	26	158.0056	98.8784	-119.9948	1	155.4853	-50.51071	-4.601022E-005	-1.600053	9
	9	28	125.558	104.511	-148.5613	1	181.6398	-54.87408	-4.605091E-005	-1.600053	9
	10	30	99.734	112.4444	-183.6704	1	215.3568	-58.52472	-4.617256E-005	-1.600057	9
	11	33	79.44915	123.6338	-225.9567	1	257.569	-61.31442	-4.641422E-005	-1.600046	9
	12	35	63.34459	139.4003	-276.7867	1	309.9086	-63.26844	-4.661748E-005	-1.600047	9
	13	38	49.86702	163.3068	-341.5228	1	378.559	-64.44416	-4.688611E-005	-1.600045	9
	14	40	38.10976	202.5791	-428.8931	1	474.3286	-64.71722	-4.689566E-005	-1.600018	8
	15	43	31.25	243.0647	-503.4753	1	559.0776	-64.22997	-4.725792E-005	-1.600019	8
	16	45	24.93351	304.9886	-598.6448	1	671.8583	-63.00275	-4.758235E-005	-1.600017	8
	17	48	19.94681	386.7579	-701.2198	1	800.8064	-61.12106	-4.802083E-005	-1.600018	8
	18	50	15.57309	507.0409	-820.0808	1	964.17	-58.27226	-4.851488E-005	-1.600016	8
	19	54	12.40079	649.1002	-925.6247	1	1130.536	-54.9597	-4.902964E-005	-1.600014	8
	20	57	9.91015	819.2691	-1015.108	1	1304.472	-51.09384	-4.966302E-005	-1.600014	8
	21	60	7.971939	1009.547	-1075.937	1	1475.407	-46.82337	-5.036738E-005	-1.600015	8
	22	64	6.351626	1223.809	-1101.287	1	1646.372	-41.98355	-5.115558E-005	-1.600015	8
	23	68	4.970838	1454.376	-1077.717	1	1810.161	-36.53908	-5.207254E-005	-1.600014	8
	24	73	3.942389	1648.138	-1003.212	1	1929.455	-31.32864	-5.311634E-005	-1.600016	8
	25	79	3.16723	1790.382	-895.0609	1	2001.65	-26.56172	-5.435594E-005	-1.600011	8
	26	86	2.485419	1895.329	-763.3086	1	2043.26	-21.9362	-5.581984E-005	-1.60001	8
	27	93	1.971194	1936.6	-622.5334	1	2034.2	-17.82036	-5.756926E-005	-1.600009	8
	28	102	1.605308	1920.058	-499.4376	1	1983.951	-14.58044	-5.956466E-005	-1.60001	8
	29	113	1.260081	1795.853	-349.8582	1	1829.614	-11.02397	-6.418733E-005	-1.600006	8
	30	135	1.001603	1746.496	-270.4147	1	1767.306	-8.801373	-6.523296E-005	-1.600006	8
