EXPLAIN
TAG	EISPOT
TITLE	LABEL	Potentiostatic EIS	Test &Identifier
DATE	LABEL	4/30/2026	Date
TIME	LABEL	12:04:11	Time
NOTES	NOTES	1	&Notes...
	
PSTAT	PSTAT	Rhea	Potentiostat
VDC	POTEN	-1.60000E+000	F	DC &Voltage (V)
FREQINIT	QUANT	1.00000E+003	Initial Fre&q. (Hz)
FREQFINAL	QUANT	1.00000E+000	Final Fre&q. (Hz)
PTSPERDEC	QUANT	1.00000E+001	Points/&decade
VAC	QUANT	1.00000E+001	AC &Voltage (mV rms)
AREA	QUANT	2.80000E-001	&Area (cm^2)
CONDIT	TWOPARAM	F	0.00000E+000	0.00000E+000	Conditionin&g	Time(s)	E(V)
DELAY	TWOPARAM	T	1.00000E+001	0.00000E+000	Init. De&lay	Time(s)	Stab.(mV/s)
SPEED	SELECTOR	2	&Optimize for:
ZGUESS	QUANT	2.86800E+005	E&stimated Z (ohms)
OCVCURVE	TABLE	40
	Pt	T	Vf	Vm	Ach	Over	Temp
	#	s	V vs. Ref.	V	V	bits	deg C
	0	0.25	-1.61218E-001	-1.61218E-001	0.00000E+000	...........	1412.47
	1	0.5	-1.61210E-001	-1.60808E-001	0.00000E+000	...........	1412.47
	2	0.75	-1.61162E-001	-1.60397E-001	0.00000E+000	...........	1412.47
	3	1	-1.61023E-001	-1.59996E-001	0.00000E+000	...........	1412.47
	4	1.25	-1.60771E-001	-1.59595E-001	0.00000E+000	...........	1412.56
	5	1.5	-1.60429E-001	-1.59196E-001	0.00000E+000	...........	1412.56
	6	1.75	-1.60040E-001	-1.58795E-001	0.00000E+000	...........	1412.56
	7	2	-1.59636E-001	-1.58398E-001	0.00000E+000	...........	1412.56
	8	2.25	-1.59231E-001	-1.58009E-001	0.00000E+000	...........	1412.56
	9	2.5	-1.58830E-001	-1.57619E-001	0.00000E+000	...........	1412.56
	10	2.75	-1.58433E-001	-1.57234E-001	0.00000E+000	...........	1412.56
	11	3	-1.58041E-001	-1.56846E-001	0.00000E+000	...........	1412.56
	12	3.25	-1.57651E-001	-1.56463E-001	0.00000E+000	...........	1412.56
	13	3.5	-1.57264E-001	-1.56085E-001	0.00000E+000	...........	1412.56
	14	3.75	-1.56879E-001	-1.55710E-001	0.00000E+000	...........	1412.56
	15	4	-1.56496E-001	-1.55335E-001	0.00000E+000	...........	1412.56
	16	4.25	-1.56117E-001	-1.54961E-001	0.00000E+000	...........	1412.56
	17	4.5	-1.55740E-001	-1.54592E-001	0.00000E+000	...........	1412.56
	18	4.75	-1.55365E-001	-1.54225E-001	0.00000E+000	...........	1412.56
	19	5	-1.54993E-001	-1.53859E-001	0.00000E+000	...........	1412.56
	20	5.25	-1.54623E-001	-1.53495E-001	0.00000E+000	...........	1412.56
	21	5.5	-1.54255E-001	-1.53139E-001	0.00000E+000	...........	1412.56
	22	5.75	-1.53889E-001	-1.52782E-001	0.00000E+000	...........	1412.56
	23	6	-1.53527E-001	-1.52424E-001	0.00000E+000	...........	1412.56
	24	6.25	-1.53167E-001	-1.52071E-001	0.00000E+000	...........	1412.56
	25	6.5	-1.52810E-001	-1.51722E-001	0.00000E+000	...........	1412.56
	26	6.75	-1.52454E-001	-1.51374E-001	0.00000E+000	...........	1412.56
	27	7	-1.52101E-001	-1.51026E-001	0.00000E+000	...........	1412.56
	28	7.25	-1.51751E-001	-1.50683E-001	0.00000E+000	...........	1412.64
	29	7.5	-1.51402E-001	-1.50343E-001	0.00000E+000	...........	1412.64
	30	7.75	-1.51056E-001	-1.50005E-001	0.00000E+000	...........	1412.64
	31	8	-1.50712E-001	-1.49666E-001	0.00000E+000	...........	1412.64
	32	8.25	-1.50371E-001	-1.49330E-001	0.00000E+000	...........	1412.64
	33	8.5	-1.50032E-001	-1.48999E-001	0.00000E+000	...........	1412.64
	34	8.75	-1.49694E-001	-1.48667E-001	0.00000E+000	...........	1412.64
	35	9	-1.49359E-001	-1.48337E-001	0.00000E+000	...........	1412.64
	36	9.25	-1.49025E-001	-1.48009E-001	0.00000E+000	...........	1412.64
	37	9.5	-1.48694E-001	-1.47685E-001	0.00000E+000	...........	1412.64
	38	9.75	-1.48364E-001	-1.47356E-001	0.00000E+000	...........	1412.64
	39	10	-1.48036E-001	-1.47037E-001	0.00000E+000	...........	1412.64
EOC	QUANT	-0.1480362	Open Circuit (V)
PSTATMODEL	IQUANT	64	Pstat Model
PSTATSECTION	LABEL	IFC1010-22099	Pstat Section
PSTATSERIALNO	LABEL	22099	Pstat Serial Number
CTRLMODE	IQUANT	1	Control Mode
ELECTROMETER	IQUANT	0	RE=0 or CS=1
IESTAB	IQUANT	0	I/E Stability
CASPEED	IQUANT	3	Control Amp Speed
CONVENTION	IQUANT	1	Current Convention
ICHRANGE	IQUANT	2	Ich Range
ICHRANGEMODE	TOGGLE	F	Ich Auto Range
ICHOFFSETENABLE	TOGGLE	T	Ich Offset Enable
ICHOFFSET	QUANT	0	Ich Offset (V)
ICHFILTER	IQUANT	4	Ich Filter
VCHRANGE	IQUANT	2	Vch Range
VCHRANGEMODE	TOGGLE	F	Vch Auto Range
VCHOFFSETENABLE	TOGGLE	T	Vch Offset Enable
VCHOFFSET	QUANT	0	Vch Offset (V)
VCHFILTER	IQUANT	4	Vch Filter
IERANGELOWERLIMIT	IQUANT	4	I/E Range Lower Limit
IERANGEMODE	TOGGLE	F	I/E AutoRange
IERANGE	IQUANT	7	I/E Range
ACHSELECT	IQUANT	0	Ach Select
ACHRANGE	IQUANT	2	Ach Range
ACHOFFSETENABLE	TOGGLE	F	Ach Offset Enable
ACHOFFSET	QUANT	0	Ach Offset (V)
ACHFILTER	IQUANT	1	Ach Filter
SENSECABLEID	IQUANT	14	Sense Cable ID
PWRCABLEID	IQUANT	14	Power Cable ID
DCCALDATE	LABEL	11/25/2025	DC Calibration Date
ACCALDATE	LABEL	9/8/2018	AC Calibration Date
FRAMEWORKVERSION	QUANT	7.07	Framework Version
INSTRUMENTVERSION	LABEL	4.34	Instrument Version
ZCURVE	TABLE
	Pt	Time	Freq	Zreal	Zimag	Zsig	Zmod	Zphz	Idc	Vdc	IERange
	#	s	Hz	ohm	ohm	V	ohm	°	A	V	#
	0	7	1004.464	77.18869	-21.22301	1	80.05317	-15.37358	-5.820171E-005	-1.599942	9
	1	9	800.3049	77.83258	-25.82113	1	82.00391	-18.35338	-5.619504E-005	-1.599943	9
	2	11	631.0096	78.60851	-31.77198	1	84.78654	-22.00757	-5.513915E-005	-1.599945	9
	3	14	498.6702	79.50217	-39.06442	1	88.58117	-26.16779	-5.467765E-005	-1.59994	9
	4	16	397.2458	80.54144	-47.80707	1	93.6613	-30.69214	-5.462017E-005	-1.599941	9
	5	19	319.6023	81.76259	-58.07465	1	100.2885	-35.38557	-5.487873E-005	-1.599943	9
	6	21	251.1161	83.52822	-72.17921	1	110.3939	-40.83127	-5.534492E-005	-1.599943	9
	7	24	200.8929	85.72589	-88.37122	1	123.1195	-45.87051	-5.593281E-005	-1.599938	9
	8	26	158.0056	89.02132	-109.9528	1	141.4723	-51.00526	-5.665108E-005	-1.59994	9
	9	28	125.558	93.43203	-135.4754	1	164.5696	-55.40752	-5.740674E-005	-1.599943	9
	10	31	99.734	99.7784	-166.9064	1	194.4568	-59.12856	-5.829502E-005	-1.599942	9
	11	33	79.44915	108.7043	-204.6577	1	231.7356	-62.02491	-5.913647E-005	-1.599931	9
	12	36	63.34459	121.5289	-250.1127	1	278.0749	-64.08504	-5.998557E-005	-1.59993	9
	13	38	49.86702	141.5457	-307.911	1	338.887	-65.3119	-6.091629E-005	-1.599927	9
	14	40	38.10976	174.6487	-386.6691	1	424.2819	-65.6925	-6.194699E-005	-1.599932	9
	15	43	31.25	210.1779	-453.2599	1	499.6191	-65.12271	-6.296258E-005	-1.59993	9
	16	45	24.93351	265.7888	-538.4042	1	600.4355	-63.72627	-6.40173E-005	-1.599932	9
	17	48	19.94681	341.6512	-628.9807	1	715.7809	-61.48997	-6.480816E-005	-1.599892	8
	18	50	15.57309	455.9576	-730.3965	1	861.0322	-58.0251	-6.594446E-005	-1.599892	8
	19	53	12.40079	593.0801	-810.1288	1	1004.018	-53.79284	-6.724396E-005	-1.599892	8
	20	57	9.91015	754.5491	-861.2998	1	1145.068	-48.77974	-6.866147E-005	-1.59989	8
	21	60	7.971939	924.3865	-868.4333	1	1268.332	-43.2124	-7.069964E-005	-1.599891	8
	22	64	6.351626	1095.638	-830.7015	1	1374.95	-37.16902	-7.228491E-005	-1.59989	8
	23	68	4.970838	1249.325	-743.1198	1	1453.63	-30.74491	-7.414604E-005	-1.59989	8
	24	73	3.942389	1331.493	-615.9691	1	1467.069	-24.82599	-7.724376E-005	-1.599934	9
	25	80	3.16723	1357.446	-493.1277	1	1444.242	-19.96488	-8.017704E-005	-1.599935	9
	26	89	2.485419	1348.746	-381.1191	1	1401.559	-15.77886	-8.343081E-005	-1.599934	9
	27	98	1.971194	1321.253	-293.0081	1	1353.353	-12.50386	-8.640748E-005	-1.599935	9
	28	107	1.605308	1271.319	-227.6032	1	1291.532	-10.15009	-8.985932E-005	-1.599934	9
	29	118	1.260081	1212.118	-172.0302	1	1224.265	-8.077776	-9.374352E-005	-1.599934	9
	30	131	1.001603	1164.769	-135.1383	1	1172.582	-6.617956	-0.0000968	-1.599937	9
