EXPLAIN
TAG	EISPOT
TITLE	LABEL	Potentiostatic EIS	Test &Identifier
DATE	LABEL	4/30/2026	Date
TIME	LABEL	13:05:25	Time
NOTES	NOTES	1	&Notes...
	
PSTAT	PSTAT	Titan	Potentiostat
VDC	POTEN	-1.60000E+000	F	DC &Voltage (V)
FREQINIT	QUANT	1.00000E+003	Initial Fre&q. (Hz)
FREQFINAL	QUANT	1.00000E+000	Final Fre&q. (Hz)
PTSPERDEC	QUANT	1.00000E+001	Points/&decade
VAC	QUANT	1.00000E+001	AC &Voltage (mV rms)
AREA	QUANT	2.80000E-001	&Area (cm^2)
CONDIT	TWOPARAM	F	0.00000E+000	0.00000E+000	Conditionin&g	Time(s)	E(V)
DELAY	TWOPARAM	T	1.00000E+001	0.00000E+000	Init. De&lay	Time(s)	Stab.(mV/s)
SPEED	SELECTOR	2	&Optimize for:
ZGUESS	QUANT	2.86800E+005	E&stimated Z (ohms)
OCVCURVE	TABLE	40
	Pt	T	Vf	Vm	Ach	Over	Temp
	#	s	V vs. Ref.	V	V	bits	deg C
	0	0.25	-2.17157E-001	-2.17157E-001	0.00000E+000	...........	1411.24
	1	0.5	-2.17155E-001	-2.17030E-001	0.00000E+000	...........	1410.54
	2	0.75	-2.17140E-001	-2.16898E-001	0.00000E+000	...........	1410.54
	3	1	-2.17096E-001	-2.16769E-001	0.00000E+000	...........	1410.54
	4	1.25	-2.17017E-001	-2.16643E-001	0.00000E+000	...........	1410.54
	5	1.5	-2.16908E-001	-2.16518E-001	0.00000E+000	...........	1410.71
	6	1.75	-2.16784E-001	-2.16378E-001	0.00000E+000	...........	1410.71
	7	2	-2.16655E-001	-2.16238E-001	0.00000E+000	...........	1410.71
	8	2.25	-2.16522E-001	-2.16093E-001	0.00000E+000	...........	1410.71
	9	2.5	-2.16386E-001	-2.15946E-001	0.00000E+000	...........	1410.71
	10	2.75	-2.16246E-001	-2.15792E-001	0.00000E+000	...........	1410.71
	11	3	-2.16102E-001	-2.15633E-001	0.00000E+000	...........	1410.71
	12	3.25	-2.15953E-001	-2.15475E-001	0.00000E+000	...........	1410.71
	13	3.5	-2.15801E-001	-2.15307E-001	0.00000E+000	...........	1410.63
	14	3.75	-2.15644E-001	-2.15143E-001	0.00000E+000	...........	1410.63
	15	4	-2.15483E-001	-2.14974E-001	0.00000E+000	...........	1410.63
	16	4.25	-2.15320E-001	-2.14810E-001	0.00000E+000	...........	1410.63
	17	4.5	-2.15155E-001	-2.14642E-001	0.00000E+000	...........	1410.71
	18	4.75	-2.14989E-001	-2.14479E-001	0.00000E+000	...........	1410.71
	19	5	-2.14823E-001	-2.14316E-001	0.00000E+000	...........	1410.71
	20	5.25	-2.14657E-001	-2.14158E-001	0.00000E+000	...........	1410.71
	21	5.5	-2.14493E-001	-2.14002E-001	0.00000E+000	...........	1410.71
	22	5.75	-2.14331E-001	-2.13847E-001	0.00000E+000	...........	1410.71
	23	6	-2.14172E-001	-2.13702E-001	0.00000E+000	...........	1410.71
	24	6.25	-2.14016E-001	-2.13563E-001	0.00000E+000	...........	1410.71
	25	6.5	-2.13865E-001	-2.13425E-001	0.00000E+000	...........	1410.71
	26	6.75	-2.13718E-001	-2.13296E-001	0.00000E+000	...........	1410.71
	27	7	-2.13577E-001	-2.13169E-001	0.00000E+000	...........	1410.71
	28	7.25	-2.13440E-001	-2.13047E-001	0.00000E+000	...........	1410.71
	29	7.5	-2.13309E-001	-2.12929E-001	0.00000E+000	...........	1410.63
	30	7.75	-2.13182E-001	-2.12807E-001	0.00000E+000	...........	1410.63
	31	8	-2.13058E-001	-2.12685E-001	0.00000E+000	...........	1410.63
	32	8.25	-2.12937E-001	-2.12569E-001	0.00000E+000	...........	1410.63
	33	8.5	-2.12816E-001	-2.12449E-001	0.00000E+000	...........	1410.71
	34	8.75	-2.12697E-001	-2.12331E-001	0.00000E+000	...........	1410.71
	35	9	-2.12578E-001	-2.12221E-001	0.00000E+000	...........	1410.71
	36	9.25	-2.12460E-001	-2.12107E-001	0.00000E+000	...........	1410.71
	37	9.5	-2.12344E-001	-2.11995E-001	0.00000E+000	...........	1410.63
	38	9.75	-2.12229E-001	-2.11878E-001	0.00000E+000	...........	1410.63
	39	10	-2.12116E-001	-2.11762E-001	0.00000E+000	...........	1410.63
EOC	QUANT	-0.2121156	Open Circuit (V)
PSTATMODEL	IQUANT	64	Pstat Model
PSTATSECTION	LABEL	IFC1010-22093	Pstat Section
PSTATSERIALNO	LABEL	22093	Pstat Serial Number
CTRLMODE	IQUANT	1	Control Mode
ELECTROMETER	IQUANT	0	RE=0 or CS=1
IESTAB	IQUANT	0	I/E Stability
CASPEED	IQUANT	3	Control Amp Speed
CONVENTION	IQUANT	1	Current Convention
ICHRANGE	IQUANT	2	Ich Range
ICHRANGEMODE	TOGGLE	F	Ich Auto Range
ICHOFFSETENABLE	TOGGLE	T	Ich Offset Enable
ICHOFFSET	QUANT	0	Ich Offset (V)
ICHFILTER	IQUANT	4	Ich Filter
VCHRANGE	IQUANT	2	Vch Range
VCHRANGEMODE	TOGGLE	F	Vch Auto Range
VCHOFFSETENABLE	TOGGLE	T	Vch Offset Enable
VCHOFFSET	QUANT	0	Vch Offset (V)
VCHFILTER	IQUANT	4	Vch Filter
IERANGELOWERLIMIT	IQUANT	4	I/E Range Lower Limit
IERANGEMODE	TOGGLE	F	I/E AutoRange
IERANGE	IQUANT	7	I/E Range
ACHSELECT	IQUANT	0	Ach Select
ACHRANGE	IQUANT	2	Ach Range
ACHOFFSETENABLE	TOGGLE	F	Ach Offset Enable
ACHOFFSET	QUANT	0	Ach Offset (V)
ACHFILTER	IQUANT	1	Ach Filter
SENSECABLEID	IQUANT	14	Sense Cable ID
PWRCABLEID	IQUANT	14	Power Cable ID
DCCALDATE	LABEL	11/25/2025	DC Calibration Date
ACCALDATE	LABEL	8/31/2018	AC Calibration Date
FRAMEWORKVERSION	QUANT	7.07	Framework Version
INSTRUMENTVERSION	LABEL	4.34	Instrument Version
ZCURVE	TABLE
	Pt	Time	Freq	Zreal	Zimag	Zsig	Zmod	Zphz	Idc	Vdc	IERange
	#	s	Hz	ohm	ohm	V	ohm	°	A	V	#
	0	10	1004.464	90.6476	-27.29108	1	94.66673	-16.75536	-0.0002711	-1.59975	9
	1	12	800.3049	91.5382	-33.32762	1	97.4165	-20.00577	-0.0002688	-1.599753	9
	2	15	631.0096	92.65359	-41.23388	1	101.4146	-23.99063	-0.0002672	-1.599749	9
	3	17	498.6702	94.07976	-51.06212	1	107.0436	-28.49105	-0.0002663	-1.599751	9
	4	19	397.2458	95.8424	-62.97028	1	114.6779	-33.30568	-0.0002659	-1.59975	9
	5	22	319.6023	98.1426	-77.05638	1	124.7784	-38.13713	-0.0002655	-1.599749	9
	6	24	251.1161	101.7142	-96.4816	1	140.1945	-43.48769	-0.0002648	-1.599752	9
	7	27	200.8929	106.4424	-118.7574	1	159.4783	-48.13009	-0.000265	-1.599745	9
	8	29	158.0056	113.8459	-148.2847	1	186.9472	-52.48467	-0.0002651	-1.599748	9
	9	32	125.558	124.1346	-182.9243	1	221.0672	-55.83873	-0.0002649	-1.599749	9
	10	34	99.734	139.0971	-224.8774	1	264.4198	-58.26128	-0.0002648	-1.599752	9
	11	37	79.44915	160.0765	-274.0247	1	317.3548	-59.70789	-0.0002647	-1.599745	9
	12	39	63.34459	189.5984	-331.1141	1	381.5549	-60.20422	-0.0002649	-1.599748	9
	13	41	49.86702	233.751	-400.5583	1	463.7742	-59.73375	-0.0002651	-1.599745	9
	14	44	38.10976	302.5457	-486.3129	1	572.7426	-58.11337	-0.0002657	-1.599743	9
	15	46	31.25	370.164	-553.197	1	665.6187	-56.2121	-0.000266	-1.599745	9
	16	49	24.93351	467.65	-628.155	1	783.1189	-53.33298	-0.0002662	-1.599745	9
	17	51	19.94681	585.3239	-693.9404	1	907.8311	-49.85308	-0.000266	-1.599743	9
	18	53	15.57309	738.9397	-750.6823	1	1053.354	-45.45165	-0.0002665	-1.599747	9
	19	56	12.40079	895.7232	-779.2858	1	1187.268	-41.02351	-0.0002668	-1.599747	9
	20	59	9.91015	1050.078	-775.7238	1	1305.531	-36.45437	-0.000267	-1.599746	9
	21	62	7.971939	1203.662	-758.4203	1	1422.675	-32.21478	-0.0002663	-1.599745	9
	22	66	6.351626	1345.149	-700.9887	1	1516.843	-27.52507	-0.0002673	-1.599746	9
	23	72	4.970838	1467.886	-625.1633	1	1595.468	-23.06884	-0.0002676	-1.599745	9
	24	77	3.942389	1562.556	-547.3322	1	1655.643	-19.30434	-0.0002681	-1.599748	9
	25	82	3.16723	1628.999	-472.2868	1	1696.081	-16.16817	-0.0002687	-1.599745	9
	26	88	2.485419	1699.914	-392.03	1	1744.533	-12.98636	-0.0002716	-1.59975	9
	27	98	1.971194	1713.139	-327.2181	1	1744.109	-10.81353	-0.0002691	-1.599746	9
	28	109	1.605308	1729.459	-288.7608	1	1753.4	-9.479007	-0.0002732	-1.599748	9
	29	125	1.260081	1615.628	-207.6781	1	1628.921	-7.324819	-0.0002764	-1.599747	9
	30	141	1.001603	1576.964	-195.7491	1	1589.066	-7.075953	-0.000285	-1.599746	9
