EXPLAIN
TAG	EISPOT
TITLE	LABEL	Potentiostatic EIS	Test &Identifier
DATE	LABEL	4/30/2026	Date
TIME	LABEL	14:26:26	Time
NOTES	NOTES	1	&Notes...
	
PSTAT	PSTAT	Rhea	Potentiostat
VDC	POTEN	-1.20000E+000	F	DC &Voltage (V)
FREQINIT	QUANT	1.00000E+003	Initial Fre&q. (Hz)
FREQFINAL	QUANT	1.00000E+000	Final Fre&q. (Hz)
PTSPERDEC	QUANT	1.00000E+001	Points/&decade
VAC	QUANT	1.00000E+001	AC &Voltage (mV rms)
AREA	QUANT	2.80000E-001	&Area (cm^2)
CONDIT	TWOPARAM	F	0.00000E+000	0.00000E+000	Conditionin&g	Time(s)	E(V)
DELAY	TWOPARAM	T	1.00000E+001	0.00000E+000	Init. De&lay	Time(s)	Stab.(mV/s)
SPEED	SELECTOR	2	&Optimize for:
ZGUESS	QUANT	2.86800E+005	E&stimated Z (ohms)
OCVCURVE	TABLE	40
	Pt	T	Vf	Vm	Ach	Over	Temp
	#	s	V vs. Ref.	V	V	bits	deg C
	0	0.25	-2.86260E-001	-2.86260E-001	0.00000E+000	...........	1416.04
	1	0.5	-2.86225E-001	-2.84383E-001	0.00000E+000	...........	1415.81
	2	0.75	-2.86003E-001	-2.82538E-001	0.00000E+000	...........	1415.81
	3	1	-2.85372E-001	-2.80735E-001	0.00000E+000	...........	1415.81
	4	1.25	-2.84231E-001	-2.78967E-001	0.00000E+000	...........	1415.81
	5	1.5	-2.82693E-001	-2.77237E-001	0.00000E+000	...........	1415.81
	6	1.75	-2.80956E-001	-2.75540E-001	0.00000E+000	...........	1415.81
	7	2	-2.79174E-001	-2.73882E-001	0.00000E+000	...........	1415.81
	8	2.25	-2.77416E-001	-2.72264E-001	0.00000E+000	...........	1415.77
	9	2.5	-2.75705E-001	-2.70679E-001	0.00000E+000	...........	1415.72
	10	2.75	-2.74040E-001	-2.69128E-001	0.00000E+000	...........	1415.72
	11	3	-2.72415E-001	-2.67581E-001	0.00000E+000	...........	1415.72
	12	3.25	-2.70823E-001	-2.66067E-001	0.00000E+000	...........	1415.72
	13	3.5	-2.69260E-001	-2.64590E-001	0.00000E+000	...........	1415.72
	14	3.75	-2.67722E-001	-2.63142E-001	0.00000E+000	...........	1415.72
	15	4	-2.66210E-001	-2.61687E-001	0.00000E+000	...........	1415.72
	16	4.25	-2.64724E-001	-2.60290E-001	0.00000E+000	...........	1415.76
	17	4.5	-2.63263E-001	-2.58906E-001	0.00000E+000	...........	1415.81
	18	4.75	-2.61827E-001	-2.57560E-001	0.00000E+000	...........	1415.81
	19	5	-2.60418E-001	-2.56250E-001	0.00000E+000	...........	1415.81
	20	5.25	-2.59038E-001	-2.54941E-001	0.00000E+000	...........	1415.77
	21	5.5	-2.57686E-001	-2.53632E-001	0.00000E+000	...........	1415.72
	22	5.75	-2.56358E-001	-2.52384E-001	0.00000E+000	...........	1415.72
	23	6	-2.55050E-001	-2.51161E-001	0.00000E+000	...........	1415.72
	24	6.25	-2.53764E-001	-2.49955E-001	0.00000E+000	...........	1415.76
	25	6.5	-2.52504E-001	-2.48747E-001	0.00000E+000	...........	1415.81
	26	6.75	-2.51269E-001	-2.47562E-001	0.00000E+000	...........	1415.81
	27	7	-2.50053E-001	-2.46400E-001	0.00000E+000	...........	1415.81
	28	7.25	-2.48853E-001	-2.45253E-001	0.00000E+000	...........	1415.81
	29	7.5	-2.47670E-001	-2.44129E-001	0.00000E+000	...........	1415.81
	30	7.75	-2.46504E-001	-2.42993E-001	0.00000E+000	...........	1415.81
	31	8	-2.45354E-001	-2.41920E-001	0.00000E+000	...........	1415.81
	32	8.25	-2.44222E-001	-2.40843E-001	0.00000E+000	...........	1415.77
	33	8.5	-2.43108E-001	-2.39786E-001	0.00000E+000	...........	1415.72
	34	8.75	-2.42014E-001	-2.38745E-001	0.00000E+000	...........	1415.72
	35	9	-2.40938E-001	-2.37710E-001	0.00000E+000	...........	1415.72
	36	9.25	-2.39878E-001	-2.36684E-001	0.00000E+000	...........	1415.81
	37	9.5	-2.38832E-001	-2.35678E-001	0.00000E+000	...........	1415.90
	38	9.75	-2.37798E-001	-2.34689E-001	0.00000E+000	...........	1415.90
	39	10	-2.36776E-001	-2.33706E-001	0.00000E+000	...........	1415.90
EOC	QUANT	-0.2367763	Open Circuit (V)
PSTATMODEL	IQUANT	64	Pstat Model
PSTATSECTION	LABEL	IFC1010-22099	Pstat Section
PSTATSERIALNO	LABEL	22099	Pstat Serial Number
CTRLMODE	IQUANT	1	Control Mode
ELECTROMETER	IQUANT	0	RE=0 or CS=1
IESTAB	IQUANT	0	I/E Stability
CASPEED	IQUANT	3	Control Amp Speed
CONVENTION	IQUANT	1	Current Convention
ICHRANGE	IQUANT	2	Ich Range
ICHRANGEMODE	TOGGLE	F	Ich Auto Range
ICHOFFSETENABLE	TOGGLE	T	Ich Offset Enable
ICHOFFSET	QUANT	0	Ich Offset (V)
ICHFILTER	IQUANT	4	Ich Filter
VCHRANGE	IQUANT	2	Vch Range
VCHRANGEMODE	TOGGLE	F	Vch Auto Range
VCHOFFSETENABLE	TOGGLE	T	Vch Offset Enable
VCHOFFSET	QUANT	0	Vch Offset (V)
VCHFILTER	IQUANT	4	Vch Filter
IERANGELOWERLIMIT	IQUANT	4	I/E Range Lower Limit
IERANGEMODE	TOGGLE	F	I/E AutoRange
IERANGE	IQUANT	7	I/E Range
ACHSELECT	IQUANT	0	Ach Select
ACHRANGE	IQUANT	2	Ach Range
ACHOFFSETENABLE	TOGGLE	F	Ach Offset Enable
ACHOFFSET	QUANT	0	Ach Offset (V)
ACHFILTER	IQUANT	1	Ach Filter
SENSECABLEID	IQUANT	14	Sense Cable ID
PWRCABLEID	IQUANT	14	Power Cable ID
DCCALDATE	LABEL	11/25/2025	DC Calibration Date
ACCALDATE	LABEL	9/8/2018	AC Calibration Date
FRAMEWORKVERSION	QUANT	7.07	Framework Version
INSTRUMENTVERSION	LABEL	4.34	Instrument Version
ZCURVE	TABLE
	Pt	Time	Freq	Zreal	Zimag	Zsig	Zmod	Zphz	Idc	Vdc	IERange
	#	s	Hz	ohm	ohm	V	ohm	°	A	V	#
	0	7	1004.464	98.2679	-40.73843	1	106.3776	-22.51719	-3.528169E-005	-1.200014	9
	1	9	800.3049	98.6946	-50.06944	1	110.6688	-26.89944	-3.161803E-005	-1.200016	9
	2	12	631.0096	99.3546	-62.3797	1	117.3139	-32.12263	-2.993164E-005	-1.200016	9
	3	14	498.6702	100.1024	-77.73339	1	126.7398	-37.83072	-2.899078E-005	-1.200015	9
	4	16	397.2458	101.1986	-96.406	1	139.7686	-43.61065	-2.842205E-005	-1.200014	9
	5	19	319.6023	102.6488	-118.6262	1	156.8724	-49.12993	-2.8071E-005	-1.200013	9
	6	21	251.1161	104.9116	-149.3551	1	182.5195	-54.9146	-2.779567E-005	-1.200012	9
	7	24	200.8929	107.9227	-184.9108	1	214.1012	-59.73014	-2.761872E-005	-1.200014	9
	8	26	158.0056	112.6431	-232.7287	1	258.5558	-64.17254	-2.747242E-005	-1.200012	9
	9	28	125.558	118.9333	-289.8892	1	313.3383	-67.69306	-2.704605E-005	-1.199999	8
	10	31	99.734	127.8086	-361.033	1	382.9881	-70.50562	-2.694912E-005	-1.200003	8
	11	33	79.44915	140.2612	-447.5515	1	469.0156	-72.59917	-2.68788E-005	-1.199993	8
	12	36	63.34459	157.43	-553.8075	1	575.749	-74.13123	-2.680368E-005	-1.199996	8
	13	38	49.86702	183.2445	-693.3677	1	717.1732	-75.19622	-2.673222E-005	-1.199995	8
	14	40	38.10976	225.1379	-890.9722	1	918.9769	-75.8189	-2.66754E-005	-1.199993	8
	15	43	31.25	268.5425	-1069.862	1	1103.051	-75.90949	-2.662621E-005	-1.19999	8
	16	45	24.93351	336.8971	-1315.967	1	1358.406	-75.64027	-2.657943E-005	-1.199992	8
	17	48	19.94681	432.3556	-1610.644	1	1667.664	-74.97395	-2.652915E-005	-1.199989	8
	18	50	15.57309	586.666	-2007.904	1	2091.854	-73.71278	-2.64923E-005	-1.199988	8
	19	53	12.40079	793.5452	-2445.79	1	2571.303	-72.02416	-2.645141E-005	-1.199991	8
	20	56	9.91015	1083.51	-2946.919	1	3139.797	-69.81275	-2.641333E-005	-1.199991	8
	21	58	7.971939	1474.492	-3492.448	1	3790.952	-67.1108	-2.636677E-005	-1.199991	8
	22	62	6.351626	2030.175	-4102.558	1	4577.4	-63.67123	-2.632627E-005	-1.199994	8
	23	67	4.970838	2832.552	-4760.907	1	5539.818	-59.24902	-2.628467E-005	-1.199991	8
	24	71	3.942389	3786.877	-5316.543	1	6527.333	-54.53842	-2.625186E-005	-1.19999	8
	25	77	3.16723	4837.045	-5720.919	1	7491.724	-49.78543	-2.622584E-005	-1.199991	8
	26	84	2.485419	6116.5	-5981.912	1	8555.398	-44.36264	-2.620091E-005	-1.199991	8
	27	91	1.971194	7340.108	-6059.097	1	9517.87	-39.53892	-2.614074E-005	-1.199989	8
	28	101	1.605308	8356.831	-6031.012	1	10305.81	-35.81747	-2.607797E-005	-1.199991	8
	29	111	1.260081	9450.484	-5899.587	1	11140.77	-31.97501	-2.606353E-005	-1.199991	8
	30	125	1.001603	10410.28	-5783.063	1	11908.72	-29.05282	-2.605799E-005	-1.199991	8
