EXPLAIN
TAG	EISPOT
TITLE	LABEL	Potentiostatic EIS	Test &Identifier
DATE	LABEL	4/30/2026	Date
TIME	LABEL	11:57:22	Time
NOTES	NOTES	1	&Notes...
	
PSTAT	PSTAT	Titan	Potentiostat
VDC	POTEN	-1.20000E+000	F	DC &Voltage (V)
FREQINIT	QUANT	1.00000E+003	Initial Fre&q. (Hz)
FREQFINAL	QUANT	1.00000E+000	Final Fre&q. (Hz)
PTSPERDEC	QUANT	1.00000E+001	Points/&decade
VAC	QUANT	1.00000E+001	AC &Voltage (mV rms)
AREA	QUANT	2.80000E-001	&Area (cm^2)
CONDIT	TWOPARAM	F	0.00000E+000	0.00000E+000	Conditionin&g	Time(s)	E(V)
DELAY	TWOPARAM	T	1.00000E+001	0.00000E+000	Init. De&lay	Time(s)	Stab.(mV/s)
SPEED	SELECTOR	2	&Optimize for:
ZGUESS	QUANT	2.86800E+005	E&stimated Z (ohms)
OCVCURVE	TABLE	40
	Pt	T	Vf	Vm	Ach	Over	Temp
	#	s	V vs. Ref.	V	V	bits	deg C
	0	0.25	-6.51677E-002	-6.51677E-002	0.00000E+000	...........	1403.39
	1	0.5	-6.51643E-002	-6.49898E-002	0.00000E+000	...........	1403.44
	2	0.75	-6.51433E-002	-6.48149E-002	0.00000E+000	...........	1403.44
	3	1	-6.50834E-002	-6.46409E-002	0.00000E+000	...........	1403.44
	4	1.25	-6.49748E-002	-6.44673E-002	0.00000E+000	...........	1403.48
	5	1.5	-6.48276E-002	-6.42976E-002	0.00000E+000	...........	1403.53
	6	1.75	-6.46602E-002	-6.41296E-002	0.00000E+000	...........	1403.53
	7	2	-6.44867E-002	-6.39635E-002	0.00000E+000	...........	1403.53
	8	2.25	-6.43142E-002	-6.37971E-002	0.00000E+000	...........	1403.53
	9	2.5	-6.41443E-002	-6.36315E-002	0.00000E+000	...........	1403.53
	10	2.75	-6.39767E-002	-6.34710E-002	0.00000E+000	...........	1403.53
	11	3	-6.38109E-002	-6.33114E-002	0.00000E+000	...........	1403.53
	12	3.25	-6.36469E-002	-6.31535E-002	0.00000E+000	...........	1403.56
	13	3.5	-6.34850E-002	-6.29971E-002	0.00000E+000	...........	1403.62
	14	3.75	-6.33250E-002	-6.28427E-002	0.00000E+000	...........	1403.62
	15	4	-6.31670E-002	-6.26909E-002	0.00000E+000	...........	1403.62
	16	4.25	-6.30107E-002	-6.25380E-002	0.00000E+000	...........	1403.62
	17	4.5	-6.28561E-002	-6.23888E-002	0.00000E+000	...........	1403.62
	18	4.75	-6.27032E-002	-6.22441E-002	0.00000E+000	...........	1403.62
	19	5	-6.25520E-002	-6.20975E-002	0.00000E+000	...........	1403.62
	20	5.25	-6.24028E-002	-6.19542E-002	0.00000E+000	...........	1403.62
	21	5.5	-6.22557E-002	-6.18119E-002	0.00000E+000	...........	1403.62
	22	5.75	-6.21103E-002	-6.16721E-002	0.00000E+000	...........	1403.62
	23	6	-6.19665E-002	-6.15322E-002	0.00000E+000	...........	1403.62
	24	6.25	-6.18243E-002	-6.13960E-002	0.00000E+000	...........	1403.62
	25	6.5	-6.16837E-002	-6.12574E-002	0.00000E+000	...........	1403.62
	26	6.75	-6.15444E-002	-6.11207E-002	0.00000E+000	...........	1403.62
	27	7	-6.14062E-002	-6.09858E-002	0.00000E+000	...........	1403.62
	28	7.25	-6.12689E-002	-6.08531E-002	0.00000E+000	...........	1403.65
	29	7.5	-6.11326E-002	-6.07170E-002	0.00000E+000	...........	1403.70
	30	7.75	-6.09972E-002	-6.05838E-002	0.00000E+000	...........	1403.70
	31	8	-6.08626E-002	-6.04519E-002	0.00000E+000	...........	1403.70
	32	8.25	-6.07285E-002	-6.03174E-002	0.00000E+000	...........	1403.70
	33	8.5	-6.05948E-002	-6.01855E-002	0.00000E+000	...........	1403.70
	34	8.75	-6.04616E-002	-6.00549E-002	0.00000E+000	...........	1403.70
	35	9	-6.03287E-002	-5.99206E-002	0.00000E+000	...........	1403.70
	36	9.25	-6.01963E-002	-5.97919E-002	0.00000E+000	...........	1403.70
	37	9.5	-6.00643E-002	-5.96610E-002	0.00000E+000	...........	1403.70
	38	9.75	-5.99328E-002	-5.95310E-002	0.00000E+000	...........	1403.70
	39	10	-5.98018E-002	-5.94011E-002	0.00000E+000	...........	1403.70
EOC	QUANT	-0.0598018	Open Circuit (V)
PSTATMODEL	IQUANT	64	Pstat Model
PSTATSECTION	LABEL	IFC1010-22093	Pstat Section
PSTATSERIALNO	LABEL	22093	Pstat Serial Number
CTRLMODE	IQUANT	1	Control Mode
ELECTROMETER	IQUANT	0	RE=0 or CS=1
IESTAB	IQUANT	0	I/E Stability
CASPEED	IQUANT	3	Control Amp Speed
CONVENTION	IQUANT	1	Current Convention
ICHRANGE	IQUANT	2	Ich Range
ICHRANGEMODE	TOGGLE	F	Ich Auto Range
ICHOFFSETENABLE	TOGGLE	T	Ich Offset Enable
ICHOFFSET	QUANT	0	Ich Offset (V)
ICHFILTER	IQUANT	4	Ich Filter
VCHRANGE	IQUANT	2	Vch Range
VCHRANGEMODE	TOGGLE	F	Vch Auto Range
VCHOFFSETENABLE	TOGGLE	T	Vch Offset Enable
VCHOFFSET	QUANT	0	Vch Offset (V)
VCHFILTER	IQUANT	4	Vch Filter
IERANGELOWERLIMIT	IQUANT	4	I/E Range Lower Limit
IERANGEMODE	TOGGLE	F	I/E AutoRange
IERANGE	IQUANT	7	I/E Range
ACHSELECT	IQUANT	0	Ach Select
ACHRANGE	IQUANT	2	Ach Range
ACHOFFSETENABLE	TOGGLE	F	Ach Offset Enable
ACHOFFSET	QUANT	0	Ach Offset (V)
ACHFILTER	IQUANT	1	Ach Filter
SENSECABLEID	IQUANT	14	Sense Cable ID
PWRCABLEID	IQUANT	14	Power Cable ID
DCCALDATE	LABEL	11/25/2025	DC Calibration Date
ACCALDATE	LABEL	8/31/2018	AC Calibration Date
FRAMEWORKVERSION	QUANT	7.07	Framework Version
INSTRUMENTVERSION	LABEL	4.34	Instrument Version
ZCURVE	TABLE
	Pt	Time	Freq	Zreal	Zimag	Zsig	Zmod	Zphz	Idc	Vdc	IERange
	#	s	Hz	ohm	ohm	V	ohm	°	A	V	#
	0	8	1004.464	196.7184	-50.8764	1	203.1909	-14.50043	-4.940225E-005	-1.199765	9
	1	11	800.3049	194.1735	-59.58337	1	203.1097	-17.05896	-4.185287E-005	-1.199766	9
	2	13	631.0096	192.4228	-71.1556	1	205.1576	-20.29378	-3.632678E-005	-1.199766	9
	3	15	498.6702	191.9562	-85.61741	1	210.1845	-24.03811	-3.232296E-005	-1.199763	9
	4	18	397.2458	192.3249	-103.1937	1	218.2608	-28.21618	-2.93766E-005	-1.199762	9
	5	20	319.6023	193.4866	-123.9575	1	229.788	-32.64573	-2.715169E-005	-1.199765	9
	6	22	251.1161	195.6392	-152.8859	1	248.2918	-38.0065	-2.483161E-005	-1.199751	8
	7	24	200.8929	198.3753	-186.3978	1	272.2075	-43.21703	-2.349571E-005	-1.199751	8
	8	27	158.0056	202.393	-231.5934	1	307.5686	-48.8493	-2.219967E-005	-1.199752	8
	9	30	125.558	208.3052	-286.09	1	353.8906	-53.94124	-2.123344E-005	-1.19975	8
	10	32	99.734	215.7941	-354.2364	1	414.7897	-58.65102	-2.051574E-005	-1.199752	8
	11	34	79.44915	226.8422	-437.9797	1	493.2379	-62.61907	-1.991391E-005	-1.199749	8
	12	37	63.34459	241.3964	-541.3414	1	592.7248	-65.96682	-1.937783E-005	-1.199749	8
	13	39	49.86702	263.4427	-677.951	1	727.3373	-68.76454	-1.891049E-005	-1.199748	8
	14	42	38.10976	300.2639	-872.3359	1	922.5662	-71.00619	-1.854047E-005	-1.199748	8
	15	44	31.25	337.6784	-1050.072	1	1103.031	-72.17343	-1.81918E-005	-1.199746	8
	16	46	24.93351	398.7657	-1296.078	1	1356.035	-72.89838	-1.791111E-005	-1.199746	8
	17	49	19.94681	484.7362	-1592.549	1	1664.687	-73.07093	-1.768166E-005	-1.199748	8
	18	51	15.57309	623.6788	-1995.195	1	2090.401	-72.64125	-1.748994E-005	-1.199747	8
	19	54	12.40079	810.8153	-2444.973	1	2575.91	-71.65316	-1.726899E-005	-1.199746	8
	20	56	9.91015	1074.948	-2970.214	1	3158.747	-70.10434	-1.707443E-005	-1.199745	8
	21	59	7.971939	1436.735	-3558.466	1	3837.563	-68.01354	-1.691215E-005	-1.199745	8
	22	62	6.351626	1965.06	-4241.963	1	4675.009	-65.14439	-1.676331E-005	-1.199744	8
	23	65	4.970838	2750.736	-5028.025	1	5731.281	-61.31777	-1.657723E-005	-1.199743	8
	24	70	3.942389	3730.251	-5760.436	1	6862.754	-57.07436	-1.640714E-005	-1.199744	8
	25	76	3.16723	4871.047	-6367.877	1	8017.292	-52.58616	-1.624149E-005	-1.199741	8
	26	82	2.485419	6377.035	-6811.854	1	9331.021	-46.88828	-1.615706E-005	-1.199742	8
	27	87	1.971194	7892.479	-6965.211	1	10526.41	-41.42881	-1.605188E-005	-1.199741	8
	28	97	1.605308	9230.974	-6941.596	1	11549.75	-36.94279	-1.59133E-005	-1.199739	8
	29	107	1.260081	10736.37	-6719.81	1	12665.92	-32.04212	-1.576465E-005	-1.199737	8
	30	121	1.001603	12026.41	-6339.175	1	13594.84	-27.79391	-1.55932E-005	-1.199735	8
