EXPLAIN
TAG	EISPOT
TITLE	LABEL	Potentiostatic EIS	Test &Identifier
DATE	LABEL	4/30/2026	Date
TIME	LABEL	13:30:47	Time
NOTES	NOTES	1	&Notes...
	
PSTAT	PSTAT	Rhea	Potentiostat
VDC	POTEN	-1.20000E+000	F	DC &Voltage (V)
FREQINIT	QUANT	1.00000E+003	Initial Fre&q. (Hz)
FREQFINAL	QUANT	1.00000E+000	Final Fre&q. (Hz)
PTSPERDEC	QUANT	1.00000E+001	Points/&decade
VAC	QUANT	1.00000E+001	AC &Voltage (mV rms)
AREA	QUANT	2.80000E-001	&Area (cm^2)
CONDIT	TWOPARAM	F	0.00000E+000	0.00000E+000	Conditionin&g	Time(s)	E(V)
DELAY	TWOPARAM	T	1.00000E+001	0.00000E+000	Init. De&lay	Time(s)	Stab.(mV/s)
SPEED	SELECTOR	2	&Optimize for:
ZGUESS	QUANT	2.86800E+005	E&stimated Z (ohms)
OCVCURVE	TABLE	40
	Pt	T	Vf	Vm	Ach	Over	Temp
	#	s	V vs. Ref.	V	V	bits	deg C
	0	0.25	1.92872E-002	1.92872E-002	0.00000E+000	...........	1415.28
	1	0.5	1.92822E-002	1.90227E-002	0.00000E+000	...........	1415.90
	2	0.75	1.92516E-002	1.87937E-002	0.00000E+000	...........	1415.90
	3	1	1.91661E-002	1.85637E-002	0.00000E+000	...........	1415.90
	4	1.25	1.90151E-002	1.83398E-002	0.00000E+000	...........	1415.90
	5	1.5	1.88154E-002	1.81328E-002	0.00000E+000	...........	1416.07
	6	1.75	1.85943E-002	1.79316E-002	0.00000E+000	...........	1416.07
	7	2	1.83721E-002	1.77464E-002	0.00000E+000	...........	1416.07
	8	2.25	1.81589E-002	1.75778E-002	0.00000E+000	...........	1416.07
	9	2.5	1.79586E-002	1.74183E-002	0.00000E+000	...........	1415.99
	10	2.75	1.77708E-002	1.71925E-002	0.00000E+000	...........	1415.99
	11	3	1.75890E-002	1.69955E-002	0.00000E+000	...........	1415.99
	12	3.25	1.74046E-002	1.68315E-002	0.00000E+000	...........	1415.99
	13	3.5	1.72169E-002	1.67037E-002	0.00000E+000	...........	1416.07
	14	3.75	1.70353E-002	1.65935E-002	0.00000E+000	...........	1416.07
	15	4	1.68718E-002	1.65112E-002	0.00000E+000	...........	1416.07
	16	4.25	1.67330E-002	1.64352E-002	0.00000E+000	...........	1416.07
	17	4.5	1.66194E-002	1.63951E-002	0.00000E+000	...........	1416.07
	18	4.75	1.65283E-002	1.63328E-002	0.00000E+000	...........	1416.07
	19	5	1.64548E-002	1.62683E-002	0.00000E+000	...........	1416.07
	20	5.25	1.63924E-002	1.62286E-002	0.00000E+000	...........	1416.07
	21	5.5	1.63357E-002	1.61980E-002	0.00000E+000	...........	1416.07
	22	5.75	1.62840E-002	1.61495E-002	0.00000E+000	...........	1416.07
	23	6	1.62369E-002	1.60677E-002	0.00000E+000	...........	1416.07
	24	6.25	1.61890E-002	1.59706E-002	0.00000E+000	...........	1416.07
	25	6.5	1.61309E-002	1.58210E-002	0.00000E+000	...........	1416.07
	26	6.75	1.60550E-002	1.57764E-002	0.00000E+000	...........	1416.07
	27	7	1.59651E-002	1.57502E-002	0.00000E+000	...........	1416.07
	28	7.25	1.58773E-002	1.57303E-002	0.00000E+000	...........	1416.07
	29	7.5	1.58085E-002	1.57311E-002	0.00000E+000	...........	1416.07
	30	7.75	1.57642E-002	1.57190E-002	0.00000E+000	...........	1416.07
	31	8	1.57395E-002	1.56961E-002	0.00000E+000	...........	1416.07
	32	8.25	1.57249E-002	1.56810E-002	0.00000E+000	...........	1416.07
	33	8.5	1.57129E-002	1.56892E-002	0.00000E+000	...........	1416.07
	34	8.75	1.57018E-002	1.57068E-002	0.00000E+000	...........	1416.07
	35	9	1.56954E-002	1.57187E-002	0.00000E+000	...........	1416.07
	36	9.25	1.56967E-002	1.57312E-002	0.00000E+000	...........	1416.07
	37	9.5	1.57042E-002	1.57143E-002	0.00000E+000	...........	1416.07
	38	9.75	1.57133E-002	1.57401E-002	0.00000E+000	...........	1416.07
	39	10	1.57220E-002	1.57968E-002	0.00000E+000	...........	1416.07
EOC	QUANT	0.015722	Open Circuit (V)
PSTATMODEL	IQUANT	64	Pstat Model
PSTATSECTION	LABEL	IFC1010-22099	Pstat Section
PSTATSERIALNO	LABEL	22099	Pstat Serial Number
CTRLMODE	IQUANT	1	Control Mode
ELECTROMETER	IQUANT	0	RE=0 or CS=1
IESTAB	IQUANT	0	I/E Stability
CASPEED	IQUANT	3	Control Amp Speed
CONVENTION	IQUANT	1	Current Convention
ICHRANGE	IQUANT	2	Ich Range
ICHRANGEMODE	TOGGLE	F	Ich Auto Range
ICHOFFSETENABLE	TOGGLE	T	Ich Offset Enable
ICHOFFSET	QUANT	0	Ich Offset (V)
ICHFILTER	IQUANT	4	Ich Filter
VCHRANGE	IQUANT	2	Vch Range
VCHRANGEMODE	TOGGLE	F	Vch Auto Range
VCHOFFSETENABLE	TOGGLE	T	Vch Offset Enable
VCHOFFSET	QUANT	0	Vch Offset (V)
VCHFILTER	IQUANT	4	Vch Filter
IERANGELOWERLIMIT	IQUANT	4	I/E Range Lower Limit
IERANGEMODE	TOGGLE	F	I/E AutoRange
IERANGE	IQUANT	7	I/E Range
ACHSELECT	IQUANT	0	Ach Select
ACHRANGE	IQUANT	2	Ach Range
ACHOFFSETENABLE	TOGGLE	F	Ach Offset Enable
ACHOFFSET	QUANT	0	Ach Offset (V)
ACHFILTER	IQUANT	1	Ach Filter
SENSECABLEID	IQUANT	14	Sense Cable ID
PWRCABLEID	IQUANT	14	Power Cable ID
DCCALDATE	LABEL	11/25/2025	DC Calibration Date
ACCALDATE	LABEL	9/8/2018	AC Calibration Date
FRAMEWORKVERSION	QUANT	7.07	Framework Version
INSTRUMENTVERSION	LABEL	4.34	Instrument Version
ZCURVE	TABLE
	Pt	Time	Freq	Zreal	Zimag	Zsig	Zmod	Zphz	Idc	Vdc	IERange
	#	s	Hz	ohm	ohm	V	ohm	°	A	V	#
	0	7	1004.464	85.58733	-36.03506	1	92.86398	-22.83268	-5.185729E-005	-1.20001	9
	1	9	800.3049	86.14705	-42.74921	1	96.1707	-26.39223	-4.968603E-005	-1.200013	9
	2	12	631.0096	86.93418	-51.34386	1	100.9641	-30.56636	-4.804252E-005	-1.200013	9
	3	14	498.6702	87.85267	-61.78817	1	107.4052	-35.11933	-4.694958E-005	-1.20001	9
	4	17	397.2458	88.83377	-74.27547	1	115.7941	-39.89959	-4.595087E-005	-1.200011	9
	5	19	319.6023	89.88276	-89.12338	1	126.5776	-44.75694	-4.539839E-005	-1.200012	9
	6	22	251.1161	91.56554	-109.8551	1	143.0119	-50.18839	-4.524412E-005	-1.20001	9
	7	24	200.8929	93.74287	-133.946	1	163.4908	-55.01353	-4.519577E-005	-1.200009	9
	8	26	158.0056	97.1357	-166.3931	1	192.6707	-59.7248	-4.53096E-005	-1.200011	9
	9	29	125.558	101.9167	-205.2317	1	229.1442	-63.59131	-4.54691E-005	-1.200009	9
	10	31	99.734	109.0386	-253.7207	1	276.1587	-66.74397	-4.550531E-005	-1.200009	9
	11	34	79.44915	118.6645	-312.787	1	334.5399	-69.22437	-4.574245E-005	-1.2	9
	12	36	63.34459	132.6402	-385.3014	1	407.493	-71.00395	-4.565049E-005	-1.199979	8
	13	38	49.86702	154.5421	-479.3391	1	503.636	-72.13034	-4.594263E-005	-1.199981	8
	14	41	38.10976	190.2825	-612.6384	1	641.5085	-72.74546	-4.621618E-005	-1.199978	8
	15	43	31.25	227.881	-731.8624	1	766.5196	-72.7049	-4.65022E-005	-1.199978	8
	16	45	24.93351	288.065	-893.3764	1	938.6708	-72.12833	-4.684098E-005	-1.19998	8
	17	48	19.94681	372.225	-1082.305	1	1144.524	-71.02095	-4.715308E-005	-1.199978	8
	18	50	15.57309	504.8163	-1329.469	1	1422.085	-69.20758	-4.730892E-005	-1.199977	8
	19	53	12.40079	678.9461	-1586.271	1	1725.463	-66.82839	-4.772058E-005	-1.199978	8
	20	55	9.91015	911.0572	-1861.401	1	2072.399	-63.9207	-4.824474E-005	-1.199976	8
	21	59	7.971939	1202.848	-2144.613	1	2458.904	-60.71328	-4.851758E-005	-1.199978	8
	22	63	6.351626	1589.993	-2426.479	1	2901.013	-56.76446	-4.897959E-005	-1.19998	8
	23	67	4.970838	2097.891	-2674.39	1	3399.045	-51.88805	-4.96988E-005	-1.199979	8
	24	72	3.942389	2639.035	-2839.652	1	3876.613	-47.0971	-5.044888E-005	-1.199979	8
	25	78	3.16723	3171.79	-2950.058	1	4331.639	-42.92567	-5.076934E-005	-1.199979	8
	26	84	2.485419	3770.103	-2994.718	1	4814.771	-38.46128	-5.134977E-005	-1.199974	8
	27	92	1.971194	4333.737	-2982.094	1	5260.624	-34.5323	-5.184154E-005	-1.199976	8
	28	101	1.605308	4785.046	-2956.262	1	5624.603	-31.7083	-5.246785E-005	-1.199977	8
	29	112	1.260081	5218.741	-2832.948	1	5938.084	-28.49494	-5.363901E-005	-1.199976	8
	30	125	1.001603	5696.208	-2830.806	1	6360.836	-26.42569	-5.435679E-005	-1.199976	8
