EXPLAIN
TAG	EISPOT
TITLE	LABEL	Potentiostatic EIS	Test &Identifier
DATE	LABEL	4/30/2026	Date
TIME	LABEL	15:01:06	Time
NOTES	NOTES	1	&Notes...
	
PSTAT	PSTAT	Rhea	Potentiostat
VDC	POTEN	-1.60000E+000	F	DC &Voltage (V)
FREQINIT	QUANT	1.00000E+003	Initial Fre&q. (Hz)
FREQFINAL	QUANT	1.00000E+000	Final Fre&q. (Hz)
PTSPERDEC	QUANT	1.00000E+001	Points/&decade
VAC	QUANT	1.00000E+001	AC &Voltage (mV rms)
AREA	QUANT	2.80000E-001	&Area (cm^2)
CONDIT	TWOPARAM	F	0.00000E+000	0.00000E+000	Conditionin&g	Time(s)	E(V)
DELAY	TWOPARAM	T	1.00000E+001	0.00000E+000	Init. De&lay	Time(s)	Stab.(mV/s)
SPEED	SELECTOR	2	&Optimize for:
ZGUESS	QUANT	2.86800E+005	E&stimated Z (ohms)
OCVCURVE	TABLE	40
	Pt	T	Vf	Vm	Ach	Over	Temp
	#	s	V vs. Ref.	V	V	bits	deg C
	0	0.25	-1.37076E-001	-1.37076E-001	0.00000E+000	...........	1415.28
	1	0.5	-1.37075E-001	-1.37052E-001	0.00000E+000	...........	1415.28
	2	0.75	-1.37072E-001	-1.37023E-001	0.00000E+000	...........	1415.90
	3	1	-1.37064E-001	-1.37000E-001	0.00000E+000	...........	1415.90
	4	1.25	-1.37048E-001	-1.36980E-001	0.00000E+000	...........	1415.90
	5	1.5	-1.37027E-001	-1.36950E-001	0.00000E+000	...........	1415.90
	6	1.75	-1.37004E-001	-1.36935E-001	0.00000E+000	...........	1415.90
	7	2	-1.36980E-001	-1.36931E-001	0.00000E+000	...........	1415.90
	8	2.25	-1.36959E-001	-1.36906E-001	0.00000E+000	...........	1415.90
	9	2.5	-1.36941E-001	-1.36886E-001	0.00000E+000	...........	1415.90
	10	2.75	-1.36924E-001	-1.36865E-001	0.00000E+000	...........	1415.90
	11	3	-1.36906E-001	-1.36839E-001	0.00000E+000	...........	1415.90
	12	3.25	-1.36886E-001	-1.36808E-001	0.00000E+000	...........	1415.90
	13	3.5	-1.36864E-001	-1.36789E-001	0.00000E+000	...........	1415.90
	14	3.75	-1.36840E-001	-1.36767E-001	0.00000E+000	...........	1415.90
	15	4	-1.36815E-001	-1.36745E-001	0.00000E+000	...........	1415.90
	16	4.25	-1.36791E-001	-1.36722E-001	0.00000E+000	...........	1415.90
	17	4.5	-1.36769E-001	-1.36701E-001	0.00000E+000	...........	1415.90
	18	4.75	-1.36746E-001	-1.36682E-001	0.00000E+000	...........	1415.90
	19	5	-1.36725E-001	-1.36659E-001	0.00000E+000	...........	1415.90
	20	5.25	-1.36703E-001	-1.36639E-001	0.00000E+000	...........	1415.90
	21	5.5	-1.36682E-001	-1.36608E-001	0.00000E+000	...........	1415.90
	22	5.75	-1.36660E-001	-1.36593E-001	0.00000E+000	...........	1415.90
	23	6	-1.36638E-001	-1.36579E-001	0.00000E+000	...........	1415.90
	24	6.25	-1.36616E-001	-1.36546E-001	0.00000E+000	...........	1415.90
	25	6.5	-1.36595E-001	-1.36551E-001	0.00000E+000	...........	1415.90
	26	6.75	-1.36577E-001	-1.36546E-001	0.00000E+000	...........	1415.90
	27	7	-1.36562E-001	-1.36531E-001	0.00000E+000	...........	1415.90
	28	7.25	-1.36550E-001	-1.36510E-001	0.00000E+000	...........	1415.90
	29	7.5	-1.36540E-001	-1.36488E-001	0.00000E+000	...........	1415.90
	30	7.75	-1.36527E-001	-1.36461E-001	0.00000E+000	...........	1415.90
	31	8	-1.36509E-001	-1.36439E-001	0.00000E+000	...........	1415.90
	32	8.25	-1.36488E-001	-1.36412E-001	0.00000E+000	...........	1415.90
	33	8.5	-1.36464E-001	-1.36386E-001	0.00000E+000	...........	1415.90
	34	8.75	-1.36439E-001	-1.36360E-001	0.00000E+000	...........	1415.90
	35	9	-1.36414E-001	-1.36334E-001	0.00000E+000	...........	1415.90
	36	9.25	-1.36388E-001	-1.36313E-001	0.00000E+000	...........	1415.90
	37	9.5	-1.36363E-001	-1.36289E-001	0.00000E+000	...........	1415.90
	38	9.75	-1.36338E-001	-1.36266E-001	0.00000E+000	...........	1415.90
	39	10	-1.36314E-001	-1.36242E-001	0.00000E+000	...........	1415.90
EOC	QUANT	-0.136314	Open Circuit (V)
PSTATMODEL	IQUANT	64	Pstat Model
PSTATSECTION	LABEL	IFC1010-22099	Pstat Section
PSTATSERIALNO	LABEL	22099	Pstat Serial Number
CTRLMODE	IQUANT	1	Control Mode
ELECTROMETER	IQUANT	0	RE=0 or CS=1
IESTAB	IQUANT	0	I/E Stability
CASPEED	IQUANT	3	Control Amp Speed
CONVENTION	IQUANT	1	Current Convention
ICHRANGE	IQUANT	2	Ich Range
ICHRANGEMODE	TOGGLE	F	Ich Auto Range
ICHOFFSETENABLE	TOGGLE	T	Ich Offset Enable
ICHOFFSET	QUANT	0	Ich Offset (V)
ICHFILTER	IQUANT	4	Ich Filter
VCHRANGE	IQUANT	2	Vch Range
VCHRANGEMODE	TOGGLE	F	Vch Auto Range
VCHOFFSETENABLE	TOGGLE	T	Vch Offset Enable
VCHOFFSET	QUANT	0	Vch Offset (V)
VCHFILTER	IQUANT	4	Vch Filter
IERANGELOWERLIMIT	IQUANT	4	I/E Range Lower Limit
IERANGEMODE	TOGGLE	F	I/E AutoRange
IERANGE	IQUANT	7	I/E Range
ACHSELECT	IQUANT	0	Ach Select
ACHRANGE	IQUANT	2	Ach Range
ACHOFFSETENABLE	TOGGLE	F	Ach Offset Enable
ACHOFFSET	QUANT	0	Ach Offset (V)
ACHFILTER	IQUANT	1	Ach Filter
SENSECABLEID	IQUANT	14	Sense Cable ID
PWRCABLEID	IQUANT	14	Power Cable ID
DCCALDATE	LABEL	11/25/2025	DC Calibration Date
ACCALDATE	LABEL	9/8/2018	AC Calibration Date
FRAMEWORKVERSION	QUANT	7.07	Framework Version
INSTRUMENTVERSION	LABEL	4.34	Instrument Version
ZCURVE	TABLE
	Pt	Time	Freq	Zreal	Zimag	Zsig	Zmod	Zphz	Idc	Vdc	IERange
	#	s	Hz	ohm	ohm	V	ohm	°	A	V	#
	0	6	1004.464	85.87664	-28.84188	1	90.59057	-18.56475	-7.791827E-005	-1.600064	9
	1	9	800.3049	86.75829	-35.25845	1	93.64913	-22.11676	-7.631537E-005	-1.600059	9
	2	11	631.0096	87.94717	-43.52039	1	98.1261	-26.32837	-7.649115E-005	-1.600059	9
	3	13	498.6702	89.57513	-53.59011	1	104.382	-30.89082	-7.767429E-005	-1.60006	9
	4	16	397.2458	91.73637	-65.47565	1	112.7059	-35.51686	-7.957275E-005	-1.600058	9
	5	18	319.6023	94.65395	-79.19919	1	123.4175	-39.92002	-8.190155E-005	-1.600056	9
	6	21	251.1161	99.2477	-97.6351	1	139.2219	-44.53073	-8.457824E-005	-1.600054	9
	7	23	200.8929	105.3467	-118.2054	1	158.3365	-48.29203	-8.715103E-005	-1.600053	9
	8	26	158.0056	114.9544	-144.8519	1	184.9232	-51.5645	-8.983162E-005	-1.600051	9
	9	28	125.558	128.297	-174.7237	1	216.7683	-53.71072	-9.245957E-005	-1.600053	9
	10	31	99.734	147.5712	-209.1916	1	256.0046	-54.7995	-9.494997E-005	-1.600052	9
	11	33	79.44915	174.0165	-246.6011	1	301.8175	-54.79092	-0.0000975	-1.600043	9
	12	36	63.34459	210.0638	-285.6869	1	354.6038	-53.67318	-0.0001	-1.600044	9
	13	38	49.86702	260.9413	-326.015	1	417.5837	-51.32633	-0.0001025	-1.600042	9
	14	41	38.10976	333.011	-364.278	1	493.5533	-47.56747	-0.0001051	-1.600042	9
	15	43	31.25	394.3174	-380.2118	1	547.7656	-43.95665	-0.0001076	-1.600043	9
	16	46	24.93351	468.9295	-385.8214	1	607.2504	-39.44654	-0.00011	-1.600045	9
	17	49	19.94681	541.4738	-375.4531	1	658.9074	-34.73709	-0.0001123	-1.600044	9
	18	52	15.57309	613.9494	-348.2175	1	705.8253	-29.56088	-0.0001147	-1.600043	9
	19	55	12.40079	666.5233	-311.0137	1	735.5153	-25.01474	-0.0001171	-1.600042	9
	20	58	9.91015	703.5133	-269.0363	1	753.2008	-20.92776	-0.0001196	-1.600044	9
	21	62	7.971939	724.7736	-227.114	1	759.5246	-17.39883	-0.0001223	-1.60004	9
	22	65	6.351626	735.5843	-187.089	1	759.0037	-14.27008	-0.000125	-1.600042	9
	23	70	4.970838	737.5536	-149.9078	1	752.6338	-11.48887	-0.000128	-1.600041	9
	24	75	3.942389	729.6755	-120.0335	1	739.4825	-9.341637	-0.0001313	-1.600041	9
	25	80	3.16723	716.1348	-97.3225	1	722.7177	-7.739069	-0.0001349	-1.600041	9
	26	87	2.485419	700.5831	-79.51136	1	705.0806	-6.474971	-0.0001388	-1.60004	9
	27	94	1.971194	680.3224	-64.99612	1	683.4202	-5.457317	-0.0001433	-1.600041	9
	28	104	1.605308	656.559	-54.76733	1	658.8392	-4.768329	-0.000147	-1.60004	9
	29	115	1.260081	631.9715	-46.2133	1	633.6589	-4.182344	-0.0001526	-1.600037	9
	30	128	1.001603	613.888	-40.46779	1	615.2204	-3.771508	-0.000157	-1.600037	9
