EXPLAIN
TAG	EISPOT
TITLE	LABEL	Potentiostatic EIS	Test &Identifier
DATE	LABEL	4/30/2026	Date
TIME	LABEL	13:30:09	Time
NOTES	NOTES	1	&Notes...
	
PSTAT	PSTAT	Titan	Potentiostat
VDC	POTEN	-1.60000E+000	F	DC &Voltage (V)
FREQINIT	QUANT	1.00000E+003	Initial Fre&q. (Hz)
FREQFINAL	QUANT	1.00000E+000	Final Fre&q. (Hz)
PTSPERDEC	QUANT	1.00000E+001	Points/&decade
VAC	QUANT	1.00000E+001	AC &Voltage (mV rms)
AREA	QUANT	2.80000E-001	&Area (cm^2)
CONDIT	TWOPARAM	F	0.00000E+000	0.00000E+000	Conditionin&g	Time(s)	E(V)
DELAY	TWOPARAM	T	1.00000E+001	0.00000E+000	Init. De&lay	Time(s)	Stab.(mV/s)
SPEED	SELECTOR	2	&Optimize for:
ZGUESS	QUANT	2.86800E+005	E&stimated Z (ohms)
OCVCURVE	TABLE	40
	Pt	T	Vf	Vm	Ach	Over	Temp
	#	s	V vs. Ref.	V	V	bits	deg C
	0	0.25	-4.92776E-001	-4.92776E-001	0.00000E+000	...........	1411.24
	1	0.5	-4.92658E-001	-4.86595E-001	0.00000E+000	...........	1410.71
	2	0.75	-4.91936E-001	-4.80904E-001	0.00000E+000	...........	1410.71
	3	1	-4.89909E-001	-4.75661E-001	0.00000E+000	...........	1410.71
	4	1.25	-4.86323E-001	-4.70771E-001	0.00000E+000	...........	1410.71
	5	1.5	-4.81632E-001	-4.66211E-001	0.00000E+000	...........	1410.19
	6	1.75	-4.76537E-001	-4.61917E-001	0.00000E+000	...........	1410.19
	7	2	-4.71533E-001	-4.57839E-001	0.00000E+000	...........	1410.19
	8	2.25	-4.66823E-001	-4.54003E-001	0.00000E+000	...........	1410.19
	9	2.5	-4.62431E-001	-4.50367E-001	0.00000E+000	...........	1410.27
	10	2.75	-4.58318E-001	-4.46873E-001	0.00000E+000	...........	1410.27
	11	3	-4.54441E-001	-4.43553E-001	0.00000E+000	...........	1410.27
	12	3.25	-4.50763E-001	-4.40380E-001	0.00000E+000	...........	1410.27
	13	3.5	-4.47261E-001	-4.37345E-001	0.00000E+000	...........	1410.71
	14	3.75	-4.43920E-001	-4.34396E-001	0.00000E+000	...........	1410.71
	15	4	-4.40723E-001	-4.31564E-001	0.00000E+000	...........	1410.71
	16	4.25	-4.37655E-001	-4.28853E-001	0.00000E+000	...........	1410.71
	17	4.5	-4.34706E-001	-4.26222E-001	0.00000E+000	...........	1410.71
	18	4.75	-4.31866E-001	-4.23668E-001	0.00000E+000	...........	1410.71
	19	5	-4.29128E-001	-4.21188E-001	0.00000E+000	...........	1410.71
	20	5.25	-4.26483E-001	-4.18811E-001	0.00000E+000	...........	1410.71
	21	5.5	-4.23924E-001	-4.16497E-001	0.00000E+000	...........	1410.71
	22	5.75	-4.21447E-001	-4.14242E-001	0.00000E+000	...........	1410.71
	23	6	-4.19048E-001	-4.12056E-001	0.00000E+000	...........	1410.71
	24	6.25	-4.16723E-001	-4.09920E-001	0.00000E+000	...........	1410.71
	25	6.5	-4.14463E-001	-4.07830E-001	0.00000E+000	...........	1410.63
	26	6.75	-4.12265E-001	-4.05809E-001	0.00000E+000	...........	1410.63
	27	7	-4.10123E-001	-4.03831E-001	0.00000E+000	...........	1410.63
	28	7.25	-4.08037E-001	-4.01910E-001	0.00000E+000	...........	1410.63
	29	7.5	-4.06004E-001	-4.00040E-001	0.00000E+000	...........	1410.27
	30	7.75	-4.04024E-001	-3.98198E-001	0.00000E+000	...........	1410.27
	31	8	-4.02095E-001	-3.96393E-001	0.00000E+000	...........	1410.27
	32	8.25	-4.00211E-001	-3.94629E-001	0.00000E+000	...........	1410.27
	33	8.5	-3.98367E-001	-3.92904E-001	0.00000E+000	...........	1410.27
	34	8.75	-3.96562E-001	-3.91223E-001	0.00000E+000	...........	1410.27
	35	9	-3.94796E-001	-3.89562E-001	0.00000E+000	...........	1410.27
	36	9.25	-3.93067E-001	-3.87944E-001	0.00000E+000	...........	1410.27
	37	9.5	-3.91375E-001	-3.86368E-001	0.00000E+000	...........	1410.36
	38	9.75	-3.89719E-001	-3.84813E-001	0.00000E+000	...........	1410.36
	39	10	-3.88098E-001	-3.83253E-001	0.00000E+000	...........	1410.36
EOC	QUANT	-0.3880975	Open Circuit (V)
PSTATMODEL	IQUANT	64	Pstat Model
PSTATSECTION	LABEL	IFC1010-22093	Pstat Section
PSTATSERIALNO	LABEL	22093	Pstat Serial Number
CTRLMODE	IQUANT	1	Control Mode
ELECTROMETER	IQUANT	0	RE=0 or CS=1
IESTAB	IQUANT	0	I/E Stability
CASPEED	IQUANT	3	Control Amp Speed
CONVENTION	IQUANT	1	Current Convention
ICHRANGE	IQUANT	2	Ich Range
ICHRANGEMODE	TOGGLE	F	Ich Auto Range
ICHOFFSETENABLE	TOGGLE	T	Ich Offset Enable
ICHOFFSET	QUANT	0	Ich Offset (V)
ICHFILTER	IQUANT	4	Ich Filter
VCHRANGE	IQUANT	2	Vch Range
VCHRANGEMODE	TOGGLE	F	Vch Auto Range
VCHOFFSETENABLE	TOGGLE	T	Vch Offset Enable
VCHOFFSET	QUANT	0	Vch Offset (V)
VCHFILTER	IQUANT	4	Vch Filter
IERANGELOWERLIMIT	IQUANT	4	I/E Range Lower Limit
IERANGEMODE	TOGGLE	F	I/E AutoRange
IERANGE	IQUANT	7	I/E Range
ACHSELECT	IQUANT	0	Ach Select
ACHRANGE	IQUANT	2	Ach Range
ACHOFFSETENABLE	TOGGLE	F	Ach Offset Enable
ACHOFFSET	QUANT	0	Ach Offset (V)
ACHFILTER	IQUANT	1	Ach Filter
SENSECABLEID	IQUANT	14	Sense Cable ID
PWRCABLEID	IQUANT	14	Power Cable ID
DCCALDATE	LABEL	11/25/2025	DC Calibration Date
ACCALDATE	LABEL	8/31/2018	AC Calibration Date
FRAMEWORKVERSION	QUANT	7.07	Framework Version
INSTRUMENTVERSION	LABEL	4.34	Instrument Version
ZCURVE	TABLE
	Pt	Time	Freq	Zreal	Zimag	Zsig	Zmod	Zphz	Idc	Vdc	IERange
	#	s	Hz	ohm	ohm	V	ohm	°	A	V	#
	0	6	1004.464	128.1816	-30.77828	1	131.825	-13.50194	-3.141926E-005	-1.599766	9
	1	9	800.3049	129.4536	-37.05003	1	134.6512	-15.97128	-2.969654E-005	-1.599766	9
	2	11	631.0096	130.9818	-45.18068	1	138.5551	-19.0313	-2.866044E-005	-1.599765	9
	3	13	498.6702	132.7586	-55.17074	1	143.766	-22.5664	-2.798462E-005	-1.599766	9
	4	16	397.2458	134.7379	-67.22185	1	150.5758	-26.51499	-2.757046E-005	-1.599764	9
	5	18	319.6023	137.0041	-81.45034	1	159.3872	-30.73192	-2.727274E-005	-1.599768	9
	6	20	251.1161	140.0292	-101.0692	1	172.6938	-35.8207	-2.708151E-005	-1.599766	9
	7	22	200.8929	143.6933	-123.6739	1	189.5864	-40.7179	-2.699221E-005	-1.599765	9
	8	25	158.0056	148.9003	-153.907	1	214.1463	-45.94726	-2.700076E-005	-1.599763	9
	9	27	125.558	155.5324	-189.9172	1	245.4768	-50.6843	-2.696878E-005	-1.599764	9
	10	29	99.734	164.5008	-234.3776	1	286.3448	-54.93643	-2.661792E-005	-1.59975	8
	11	32	79.44915	176.4575	-288.4469	1	338.1403	-58.54377	-2.670014E-005	-1.599744	8
	12	35	63.34459	193.2267	-354.1284	1	403.4148	-61.38134	-2.676076E-005	-1.599748	8
	13	37	49.86702	218.5739	-439.1294	1	490.5193	-63.53847	-2.68566E-005	-1.599748	8
	14	40	38.10976	260.3462	-556.5097	1	614.3966	-64.92889	-2.692273E-005	-1.59975	8
	15	42	31.25	303.9269	-660.1012	1	726.7084	-65.27749	-2.70326E-005	-1.599746	8
	16	44	24.93351	371.5546	-797.1988	1	879.5333	-65.01094	-2.709658E-005	-1.599746	8
	17	47	19.94681	464.4985	-952.297	1	1059.542	-63.99844	-2.721154E-005	-1.599748	8
	18	49	15.57309	607.1904	-1144.753	1	1295.816	-62.05799	-2.738293E-005	-1.599744	8
	19	52	12.40079	785.2159	-1333.458	1	1547.474	-59.50801	-2.754959E-005	-1.599747	8
	20	55	9.91015	1011.868	-1517.673	1	1824.063	-56.30768	-2.7761E-005	-1.599747	8
	21	59	7.971939	1285.158	-1679.146	1	2114.513	-52.57087	-2.791568E-005	-1.599749	8
	22	63	6.351626	1620.741	-1806.037	1	2426.638	-48.09513	-2.810599E-005	-1.599748	8
	23	67	4.970838	2025.361	-1873.878	1	2759.258	-42.77522	-2.837464E-005	-1.599746	8
	24	72	3.942389	2417.776	-1849.657	1	3044.154	-37.41687	-2.869432E-005	-1.599742	8
	25	78	3.16723	2758.265	-1748.256	1	3265.643	-32.36752	-2.913839E-005	-1.599744	8
	26	84	2.485419	3077.989	-1579.646	1	3459.667	-27.16722	-2.960212E-005	-1.599744	8
	27	92	1.971194	3278.559	-1351.7	1	3546.271	-22.40562	-3.032592E-005	-1.599746	8
	28	101	1.605308	3382.733	-1138.743	1	3569.26	-18.60498	-3.108294E-005	-1.599743	8
	29	112	1.260081	3437.26	-911.0305	1	3555.943	-14.84467	-3.186872E-005	-1.599742	8
	30	125	1.001603	3443.378	-721.8646	1	3518.229	-11.83994	-3.260806E-005	-1.599743	8
