EXPLAIN
TAG	EISPOT
TITLE	LABEL	Potentiostatic EIS	Test &Identifier
DATE	LABEL	4/30/2026	Date
TIME	LABEL	14:00:28	Time
NOTES	NOTES	1	&Notes...
	
PSTAT	PSTAT	Rhea	Potentiostat
VDC	POTEN	-1.20000E+000	F	DC &Voltage (V)
FREQINIT	QUANT	1.00000E+003	Initial Fre&q. (Hz)
FREQFINAL	QUANT	1.00000E+000	Final Fre&q. (Hz)
PTSPERDEC	QUANT	1.00000E+001	Points/&decade
VAC	QUANT	1.00000E+001	AC &Voltage (mV rms)
AREA	QUANT	2.80000E-001	&Area (cm^2)
CONDIT	TWOPARAM	F	0.00000E+000	0.00000E+000	Conditionin&g	Time(s)	E(V)
DELAY	TWOPARAM	T	1.00000E+001	0.00000E+000	Init. De&lay	Time(s)	Stab.(mV/s)
SPEED	SELECTOR	2	&Optimize for:
ZGUESS	QUANT	2.86800E+005	E&stimated Z (ohms)
OCVCURVE	TABLE	40
	Pt	T	Vf	Vm	Ach	Over	Temp
	#	s	V vs. Ref.	V	V	bits	deg C
	0	0.25	-1.38473E-002	-1.38473E-002	0.00000E+000	...........	1416.07
	1	0.5	-1.38435E-002	-1.36511E-002	0.00000E+000	...........	1416.07
	2	0.75	-1.38202E-002	-1.34479E-002	0.00000E+000	...........	1416.07
	3	1	-1.37531E-002	-1.32547E-002	0.00000E+000	...........	1416.07
	4	1.25	-1.36309E-002	-1.30624E-002	0.00000E+000	...........	1416.07
	5	1.5	-1.34652E-002	-1.28662E-002	0.00000E+000	...........	1415.99
	6	1.75	-1.32766E-002	-1.26711E-002	0.00000E+000	...........	1415.99
	7	2	-1.30804E-002	-1.24804E-002	0.00000E+000	...........	1415.99
	8	2.25	-1.28839E-002	-1.22996E-002	0.00000E+000	...........	1415.99
	9	2.5	-1.26903E-002	-1.21225E-002	0.00000E+000	...........	1415.99
	10	2.75	-1.25015E-002	-1.19618E-002	0.00000E+000	...........	1415.99
	11	3	-1.23194E-002	-1.18061E-002	0.00000E+000	...........	1415.99
	12	3.25	-1.21452E-002	-1.16441E-002	0.00000E+000	...........	1415.99
	13	3.5	-1.19783E-002	-1.14839E-002	0.00000E+000	...........	1416.07
	14	3.75	-1.18162E-002	-1.13270E-002	0.00000E+000	...........	1416.07
	15	4	-1.16566E-002	-1.11823E-002	0.00000E+000	...........	1416.07
	16	4.25	-1.14992E-002	-1.10320E-002	0.00000E+000	...........	1416.07
	17	4.5	-1.13448E-002	-1.08878E-002	0.00000E+000	...........	1416.16
	18	4.75	-1.11938E-002	-1.07417E-002	0.00000E+000	...........	1416.16
	19	5	-1.10455E-002	-1.05998E-002	0.00000E+000	...........	1416.16
	20	5.25	-1.08993E-002	-1.04624E-002	0.00000E+000	...........	1416.16
	21	5.5	-1.07553E-002	-1.03268E-002	0.00000E+000	...........	1415.99
	22	5.75	-1.06137E-002	-1.01880E-002	0.00000E+000	...........	1415.99
	23	6	-1.04742E-002	-1.00485E-002	0.00000E+000	...........	1415.99
	24	6.25	-1.03361E-002	-9.91863E-003	0.00000E+000	...........	1415.99
	25	6.5	-1.01991E-002	-9.78960E-003	0.00000E+000	...........	1415.81
	26	6.75	-1.00637E-002	-9.66140E-003	0.00000E+000	...........	1415.81
	27	7	-9.93100E-003	-9.53953E-003	0.00000E+000	...........	1415.81
	28	7.25	-9.80131E-003	-9.42351E-003	0.00000E+000	...........	1415.81
	29	7.5	-9.67517E-003	-9.31051E-003	0.00000E+000	...........	1415.72
	30	7.75	-9.55309E-003	-9.19857E-003	0.00000E+000	...........	1415.72
	31	8	-9.43522E-003	-9.09609E-003	0.00000E+000	...........	1415.72
	32	8.25	-9.32143E-003	-8.99284E-003	0.00000E+000	...........	1415.72
	33	8.5	-9.21167E-003	-8.89481E-003	0.00000E+000	...........	1415.81
	34	8.75	-9.10577E-003	-8.79761E-003	0.00000E+000	...........	1415.81
	35	9	-9.00316E-003	-8.69510E-003	0.00000E+000	...........	1415.81
	36	9.25	-8.90249E-003	-8.58433E-003	0.00000E+000	...........	1415.81
	37	9.5	-8.80151E-003	-8.47407E-003	0.00000E+000	...........	1415.72
	38	9.75	-8.69819E-003	-8.36885E-003	0.00000E+000	...........	1415.72
	39	10	-8.59237E-003	-8.26937E-003	0.00000E+000	...........	1415.72
EOC	QUANT	-0.0085924	Open Circuit (V)
PSTATMODEL	IQUANT	64	Pstat Model
PSTATSECTION	LABEL	IFC1010-22099	Pstat Section
PSTATSERIALNO	LABEL	22099	Pstat Serial Number
CTRLMODE	IQUANT	1	Control Mode
ELECTROMETER	IQUANT	0	RE=0 or CS=1
IESTAB	IQUANT	0	I/E Stability
CASPEED	IQUANT	3	Control Amp Speed
CONVENTION	IQUANT	1	Current Convention
ICHRANGE	IQUANT	2	Ich Range
ICHRANGEMODE	TOGGLE	F	Ich Auto Range
ICHOFFSETENABLE	TOGGLE	T	Ich Offset Enable
ICHOFFSET	QUANT	0	Ich Offset (V)
ICHFILTER	IQUANT	4	Ich Filter
VCHRANGE	IQUANT	2	Vch Range
VCHRANGEMODE	TOGGLE	F	Vch Auto Range
VCHOFFSETENABLE	TOGGLE	T	Vch Offset Enable
VCHOFFSET	QUANT	0	Vch Offset (V)
VCHFILTER	IQUANT	4	Vch Filter
IERANGELOWERLIMIT	IQUANT	4	I/E Range Lower Limit
IERANGEMODE	TOGGLE	F	I/E AutoRange
IERANGE	IQUANT	7	I/E Range
ACHSELECT	IQUANT	0	Ach Select
ACHRANGE	IQUANT	2	Ach Range
ACHOFFSETENABLE	TOGGLE	F	Ach Offset Enable
ACHOFFSET	QUANT	0	Ach Offset (V)
ACHFILTER	IQUANT	1	Ach Filter
SENSECABLEID	IQUANT	14	Sense Cable ID
PWRCABLEID	IQUANT	14	Power Cable ID
DCCALDATE	LABEL	11/25/2025	DC Calibration Date
ACCALDATE	LABEL	9/8/2018	AC Calibration Date
FRAMEWORKVERSION	QUANT	7.07	Framework Version
INSTRUMENTVERSION	LABEL	4.34	Instrument Version
ZCURVE	TABLE
	Pt	Time	Freq	Zreal	Zimag	Zsig	Zmod	Zphz	Idc	Vdc	IERange
	#	s	Hz	ohm	ohm	V	ohm	°	A	V	#
	0	9	1004.464	173.5515	-50.42025	1	180.7272	-16.19966	-4.420556E-005	-1.200019	9
	1	11	800.3049	171.8224	-58.88525	1	181.6327	-18.9171	-3.923869E-005	-1.200016	9
	2	14	631.0096	172.0143	-70.17106	1	185.7765	-22.19238	-3.657284E-005	-1.200019	9
	3	16	498.6702	173.0155	-84.17547	1	192.4055	-25.94383	-3.518704E-005	-1.200018	9
	4	18	397.2458	173.66	-100.9091	1	200.8493	-30.15971	-3.431334E-005	-1.200017	9
	5	21	319.6023	175.8303	-120.6064	1	213.2186	-34.4472	-3.367198E-005	-1.200018	9
	6	23	251.1161	178.4798	-148.0561	1	231.8957	-39.67707	-3.321017E-005	-1.200015	9
	7	26	200.8929	181.1447	-179.8044	1	255.2313	-44.78725	-3.295016E-005	-1.200015	9
	8	28	158.0056	183.9302	-222.8725	1	288.9679	-50.46813	-3.244189E-005	-1.199997	8
	9	31	125.558	188.7269	-274.5022	1	333.1205	-55.49054	-3.231081E-005	-1.199995	8
	10	33	99.734	196.3448	-339.2852	1	392.0022	-59.94198	-3.213422E-005	-1.2	8
	11	35	79.44915	206.9415	-418.2196	1	466.6181	-63.67309	-3.200776E-005	-1.199991	8
	12	38	63.34459	222.1094	-515.7557	1	561.5483	-66.70095	-3.191506E-005	-1.199992	8
	13	40	49.86702	246.0036	-644.35	1	689.7134	-69.10387	-3.187996E-005	-1.199991	8
	14	43	38.10976	287.5983	-825.7034	1	874.3563	-70.79641	-3.184085E-005	-1.199989	8
	15	45	31.25	329.0311	-989.892	1	1043.143	-71.61366	-3.184214E-005	-1.199992	8
	16	48	24.93351	399.4621	-1214.634	1	1278.634	-71.79528	-3.185772E-005	-1.199992	8
	17	50	19.94681	501.0031	-1481.978	1	1564.373	-71.32146	-3.18659E-005	-1.199992	8
	18	53	15.57309	664.8508	-1835.945	1	1952.619	-70.09316	-3.184332E-005	-1.199991	8
	19	55	12.40079	880.5804	-2215.003	1	2383.623	-68.31957	-3.184278E-005	-1.199989	8
	20	58	9.91015	1176.976	-2633.157	1	2884.231	-65.91618	-3.189102E-005	-1.19999	8
	21	61	7.971939	1566.3	-3069.224	1	3445.785	-62.96367	-3.187889E-005	-1.199993	8
	22	65	6.351626	2090.403	-3529.748	1	4102.305	-59.36494	-3.184535E-005	-1.199991	8
	23	69	4.970838	2803.805	-3979.802	1	4868.28	-54.83497	-3.190208E-005	-1.199991	8
	24	74	3.942389	3592.522	-4332.401	1	5628.136	-50.33374	-3.194288E-005	-1.199991	8
	25	80	3.16723	4389.144	-4594.14	1	6353.794	-46.30725	-3.208135E-005	-1.199989	8
	26	86	2.485419	5326.998	-4731.417	1	7124.831	-41.61135	-3.211554E-005	-1.19999	8
	27	94	1.971194	6173.972	-4792.946	1	7816.026	-37.82272	-3.218603E-005	-1.199991	8
	28	103	1.605308	6891.302	-4851.484	1	8427.748	-35.14558	-3.239017E-005	-1.199988	8
	29	114	1.260081	7696.804	-4893.244	1	9120.561	-32.44617	-3.249105E-005	-1.19999	8
	30	127	1.001603	8401.126	-4903.337	1	9727.37	-30.27007	-3.271074E-005	-1.199989	8
