EXPLAIN
TAG	EISPOT
TITLE	LABEL	Potentiostatic EIS	Test &Identifier
DATE	LABEL	4/30/2026	Date
TIME	LABEL	14:55:03	Time
NOTES	NOTES	1	&Notes...
	
PSTAT	PSTAT	Rhea	Potentiostat
VDC	POTEN	-1.40000E+000	F	DC &Voltage (V)
FREQINIT	QUANT	1.00000E+003	Initial Fre&q. (Hz)
FREQFINAL	QUANT	1.00000E+000	Final Fre&q. (Hz)
PTSPERDEC	QUANT	1.00000E+001	Points/&decade
VAC	QUANT	1.00000E+001	AC &Voltage (mV rms)
AREA	QUANT	2.80000E-001	&Area (cm^2)
CONDIT	TWOPARAM	F	0.00000E+000	0.00000E+000	Conditionin&g	Time(s)	E(V)
DELAY	TWOPARAM	T	1.00000E+001	0.00000E+000	Init. De&lay	Time(s)	Stab.(mV/s)
SPEED	SELECTOR	2	&Optimize for:
ZGUESS	QUANT	2.86800E+005	E&stimated Z (ohms)
OCVCURVE	TABLE	40
	Pt	T	Vf	Vm	Ach	Over	Temp
	#	s	V vs. Ref.	V	V	bits	deg C
	0	0.25	-1.29957E-001	-1.29957E-001	0.00000E+000	...........	1416.18
	1	0.5	-1.29950E-001	-1.29558E-001	0.00000E+000	...........	1415.81
	2	0.75	-1.29902E-001	-1.29157E-001	0.00000E+000	...........	1415.81
	3	1	-1.29767E-001	-1.28750E-001	0.00000E+000	...........	1415.81
	4	1.25	-1.29519E-001	-1.28346E-001	0.00000E+000	...........	1415.84
	5	1.5	-1.29181E-001	-1.27955E-001	0.00000E+000	...........	1415.90
	6	1.75	-1.28795E-001	-1.27573E-001	0.00000E+000	...........	1415.90
	7	2	-1.28394E-001	-1.27195E-001	0.00000E+000	...........	1415.90
	8	2.25	-1.27997E-001	-1.26819E-001	0.00000E+000	...........	1415.90
	9	2.5	-1.27608E-001	-1.26445E-001	0.00000E+000	...........	1415.90
	10	2.75	-1.27226E-001	-1.26075E-001	0.00000E+000	...........	1415.90
	11	3	-1.26850E-001	-1.25707E-001	0.00000E+000	...........	1415.90
	12	3.25	-1.26476E-001	-1.25345E-001	0.00000E+000	...........	1415.90
	13	3.5	-1.26106E-001	-1.24989E-001	0.00000E+000	...........	1415.90
	14	3.75	-1.25739E-001	-1.24640E-001	0.00000E+000	...........	1415.90
	15	4	-1.25378E-001	-1.24291E-001	0.00000E+000	...........	1415.90
	16	4.25	-1.25021E-001	-1.23947E-001	0.00000E+000	...........	1415.90
	17	4.5	-1.24669E-001	-1.23600E-001	0.00000E+000	...........	1415.90
	18	4.75	-1.24320E-001	-1.23250E-001	0.00000E+000	...........	1415.90
	19	5	-1.23973E-001	-1.22902E-001	0.00000E+000	...........	1415.90
	20	5.25	-1.23625E-001	-1.22552E-001	0.00000E+000	...........	1415.90
	21	5.5	-1.23278E-001	-1.22209E-001	0.00000E+000	...........	1415.90
	22	5.75	-1.22930E-001	-1.21870E-001	0.00000E+000	...........	1415.90
	23	6	-1.22583E-001	-1.21528E-001	0.00000E+000	...........	1415.90
	24	6.25	-1.22239E-001	-1.21199E-001	0.00000E+000	...........	1415.90
	25	6.5	-1.21898E-001	-1.20890E-001	0.00000E+000	...........	1415.90
	26	6.75	-1.21563E-001	-1.20581E-001	0.00000E+000	...........	1415.90
	27	7	-1.21236E-001	-1.20278E-001	0.00000E+000	...........	1415.90
	28	7.25	-1.20918E-001	-1.19968E-001	0.00000E+000	...........	1415.87
	29	7.5	-1.20607E-001	-1.19647E-001	0.00000E+000	...........	1415.81
	30	7.75	-1.20297E-001	-1.19337E-001	0.00000E+000	...........	1415.81
	31	8	-1.19987E-001	-1.19025E-001	0.00000E+000	...........	1415.81
	32	8.25	-1.19675E-001	-1.18726E-001	0.00000E+000	...........	1415.84
	33	8.5	-1.19364E-001	-1.18427E-001	0.00000E+000	...........	1415.90
	34	8.75	-1.19056E-001	-1.18138E-001	0.00000E+000	...........	1415.90
	35	9	-1.18753E-001	-1.17848E-001	0.00000E+000	...........	1415.90
	36	9.25	-1.18455E-001	-1.17563E-001	0.00000E+000	...........	1415.87
	37	9.5	-1.18162E-001	-1.17290E-001	0.00000E+000	...........	1415.81
	38	9.75	-1.17874E-001	-1.17011E-001	0.00000E+000	...........	1415.81
	39	10	-1.17591E-001	-1.16734E-001	0.00000E+000	...........	1415.81
EOC	QUANT	-0.1175907	Open Circuit (V)
PSTATMODEL	IQUANT	64	Pstat Model
PSTATSECTION	LABEL	IFC1010-22099	Pstat Section
PSTATSERIALNO	LABEL	22099	Pstat Serial Number
CTRLMODE	IQUANT	1	Control Mode
ELECTROMETER	IQUANT	0	RE=0 or CS=1
IESTAB	IQUANT	0	I/E Stability
CASPEED	IQUANT	3	Control Amp Speed
CONVENTION	IQUANT	1	Current Convention
ICHRANGE	IQUANT	2	Ich Range
ICHRANGEMODE	TOGGLE	F	Ich Auto Range
ICHOFFSETENABLE	TOGGLE	T	Ich Offset Enable
ICHOFFSET	QUANT	0	Ich Offset (V)
ICHFILTER	IQUANT	4	Ich Filter
VCHRANGE	IQUANT	2	Vch Range
VCHRANGEMODE	TOGGLE	F	Vch Auto Range
VCHOFFSETENABLE	TOGGLE	T	Vch Offset Enable
VCHOFFSET	QUANT	0	Vch Offset (V)
VCHFILTER	IQUANT	4	Vch Filter
IERANGELOWERLIMIT	IQUANT	4	I/E Range Lower Limit
IERANGEMODE	TOGGLE	F	I/E AutoRange
IERANGE	IQUANT	7	I/E Range
ACHSELECT	IQUANT	0	Ach Select
ACHRANGE	IQUANT	2	Ach Range
ACHOFFSETENABLE	TOGGLE	F	Ach Offset Enable
ACHOFFSET	QUANT	0	Ach Offset (V)
ACHFILTER	IQUANT	1	Ach Filter
SENSECABLEID	IQUANT	14	Sense Cable ID
PWRCABLEID	IQUANT	14	Power Cable ID
DCCALDATE	LABEL	11/25/2025	DC Calibration Date
ACCALDATE	LABEL	9/8/2018	AC Calibration Date
FRAMEWORKVERSION	QUANT	7.07	Framework Version
INSTRUMENTVERSION	LABEL	4.34	Instrument Version
ZCURVE	TABLE
	Pt	Time	Freq	Zreal	Zimag	Zsig	Zmod	Zphz	Idc	Vdc	IERange
	#	s	Hz	ohm	ohm	V	ohm	°	A	V	#
	0	7	1004.464	88.92297	-34.09336	1	95.2347	-20.97699	-3.905318E-005	-1.400041	9
	1	9	800.3049	89.73769	-41.9462	1	99.0572	-25.05286	-3.757004E-005	-1.400043	9
	2	12	631.0096	90.80017	-52.27265	1	104.7717	-29.92855	-3.651706E-005	-1.400042	9
	3	14	498.6702	92.16141	-65.1226	1	112.848	-35.24559	-3.564877E-005	-1.400042	9
	4	17	397.2458	93.85509	-80.60822	1	123.7193	-40.65791	-3.502225E-005	-1.400039	9
	5	19	319.6023	96.0239	-98.9771	1	137.9024	-45.86765	-3.463094E-005	-1.400041	9
	6	22	251.1161	99.3546	-124.2322	1	159.0754	-51.34895	-3.421077E-005	-1.400037	9
	7	24	200.8929	103.5802	-153.3623	1	185.0645	-55.96508	-3.382114E-005	-1.400035	9
	8	27	158.0056	109.9064	-192.1951	1	221.401	-60.237	-3.349815E-005	-1.400035	9
	9	29	125.558	118.3597	-238.3181	1	266.0912	-63.58891	-3.324363E-005	-1.400037	9
	10	31	99.734	130.2233	-295.2686	1	322.7099	-66.20093	-3.274655E-005	-1.400021	8
	11	34	79.44915	146.8457	-364.2638	1	392.749	-68.04415	-3.259166E-005	-1.400012	8
	12	36	63.34459	170.1404	-447.6812	1	478.9219	-69.1908	-3.240091E-005	-1.400014	8
	13	39	49.86702	204.9225	-556.3676	1	592.9064	-69.78014	-3.222549E-005	-1.400014	8
	14	41	38.10976	263.2746	-703.6431	1	751.2836	-69.4862	-3.207562E-005	-1.400013	8
	15	43	31.25	323.035	-833.1522	1	893.585	-68.80738	-3.195086E-005	-1.400013	8
	16	46	24.93351	415.8791	-1002.114	1	1084.983	-67.46146	-3.185192E-005	-1.400014	8
	17	48	19.94681	540.0648	-1191.207	1	1307.916	-65.6116	-3.16939E-005	-1.400012	8
	18	51	15.57309	725.9594	-1421.041	1	1595.736	-62.93913	-3.156567E-005	-1.400015	8
	19	54	12.40079	949.251	-1642.818	1	1897.348	-59.97988	-3.143888E-005	-1.400013	8
	20	57	9.91015	1220.218	-1859.74	1	2224.312	-56.73021	-3.131131E-005	-1.400014	8
	21	61	7.971939	1530.956	-2056.981	1	2564.176	-53.34067	-3.119701E-005	-1.400014	8
	22	65	6.351626	1898.147	-2239.42	1	2935.637	-49.71518	-3.109004E-005	-1.400012	8
	23	69	4.970838	2330.637	-2402.744	1	3347.395	-45.87276	-3.102685E-005	-1.400015	8
	24	74	3.942389	2764.443	-2531.679	1	3748.539	-42.48347	-3.091908E-005	-1.400016	8
	25	80	3.16723	3191.959	-2630.466	1	4136.177	-39.49164	-3.080755E-005	-1.400014	8
	26	86	2.485419	3688.654	-2710.386	1	4577.375	-36.30807	-3.069735E-005	-1.400015	8
	27	94	1.971194	4163.538	-2766.574	1	4998.897	-33.60312	-3.058885E-005	-1.400014	8
	28	103	1.605308	4590.713	-2805.278	1	5379.984	-31.42813	-3.045877E-005	-1.400015	8
	29	114	1.260081	5067.661	-2821.539	1	5800.196	-29.1079	-3.046576E-005	-1.400014	8
	30	127	1.001603	5530.105	-2818.594	1	6206.975	-27.00711	-3.033517E-005	-1.400014	8
