EXPLAIN
TAG	EISPOT
TITLE	LABEL	Potentiostatic EIS	Test &Identifier
DATE	LABEL	4/30/2026	Date
TIME	LABEL	12:36:23	Time
NOTES	NOTES	1	&Notes...
	
PSTAT	PSTAT	Rhea	Potentiostat
VDC	POTEN	-1.40000E+000	F	DC &Voltage (V)
FREQINIT	QUANT	1.00000E+003	Initial Fre&q. (Hz)
FREQFINAL	QUANT	1.00000E+000	Final Fre&q. (Hz)
PTSPERDEC	QUANT	1.00000E+001	Points/&decade
VAC	QUANT	1.00000E+001	AC &Voltage (mV rms)
AREA	QUANT	2.80000E-001	&Area (cm^2)
CONDIT	TWOPARAM	F	0.00000E+000	0.00000E+000	Conditionin&g	Time(s)	E(V)
DELAY	TWOPARAM	T	1.00000E+001	0.00000E+000	Init. De&lay	Time(s)	Stab.(mV/s)
SPEED	SELECTOR	2	&Optimize for:
ZGUESS	QUANT	2.86800E+005	E&stimated Z (ohms)
OCVCURVE	TABLE	40
	Pt	T	Vf	Vm	Ach	Over	Temp
	#	s	V vs. Ref.	V	V	bits	deg C
	0	0.25	-7.60160E-002	-7.60160E-002	0.00000E+000	...........	1415.28
	1	0.5	-7.60125E-002	-7.58336E-002	0.00000E+000	...........	1415.28
	2	0.75	-7.59910E-002	-7.56536E-002	0.00000E+000	...........	1415.28
	3	1	-7.59294E-002	-7.54701E-002	0.00000E+000	...........	1415.46
	4	1.25	-7.58175E-002	-7.52959E-002	0.00000E+000	...........	1415.46
	5	1.5	-7.56656E-002	-7.51197E-002	0.00000E+000	...........	1415.46
	6	1.75	-7.54931E-002	-7.49500E-002	0.00000E+000	...........	1415.46
	7	2	-7.53147E-002	-7.47784E-002	0.00000E+000	...........	1415.37
	8	2.25	-7.51378E-002	-7.46064E-002	0.00000E+000	...........	1415.37
	9	2.5	-7.49636E-002	-7.44352E-002	0.00000E+000	...........	1415.37
	10	2.75	-7.47914E-002	-7.42685E-002	0.00000E+000	...........	1415.37
	11	3	-7.46204E-002	-7.41059E-002	0.00000E+000	...........	1415.37
	12	3.25	-7.44513E-002	-7.39495E-002	0.00000E+000	...........	1415.37
	13	3.5	-7.42849E-002	-7.37888E-002	0.00000E+000	...........	1415.37
	14	3.75	-7.41216E-002	-7.36284E-002	0.00000E+000	...........	1415.37
	15	4	-7.39608E-002	-7.34761E-002	0.00000E+000	...........	1415.37
	16	4.25	-7.38017E-002	-7.33236E-002	0.00000E+000	...........	1415.37
	17	4.5	-7.36444E-002	-7.31727E-002	0.00000E+000	...........	1415.37
	18	4.75	-7.34894E-002	-7.30224E-002	0.00000E+000	...........	1415.37
	19	5	-7.33365E-002	-7.28768E-002	0.00000E+000	...........	1415.37
	20	5.25	-7.31854E-002	-7.27314E-002	0.00000E+000	...........	1415.37
	21	5.5	-7.30362E-002	-7.25812E-002	0.00000E+000	...........	1415.37
	22	5.75	-7.28884E-002	-7.24378E-002	0.00000E+000	...........	1415.37
	23	6	-7.27414E-002	-7.22941E-002	0.00000E+000	...........	1415.37
	24	6.25	-7.25952E-002	-7.21574E-002	0.00000E+000	...........	1415.37
	25	6.5	-7.24507E-002	-7.20188E-002	0.00000E+000	...........	1415.37
	26	6.75	-7.23085E-002	-7.18820E-002	0.00000E+000	...........	1415.37
	27	7	-7.21684E-002	-7.17429E-002	0.00000E+000	...........	1415.37
	28	7.25	-7.20299E-002	-7.16078E-002	0.00000E+000	...........	1415.37
	29	7.5	-7.18921E-002	-7.14726E-002	0.00000E+000	...........	1415.37
	30	7.75	-7.17552E-002	-7.13428E-002	0.00000E+000	...........	1415.37
	31	8	-7.16195E-002	-7.12108E-002	0.00000E+000	...........	1415.37
	32	8.25	-7.14855E-002	-7.10808E-002	0.00000E+000	...........	1415.37
	33	8.5	-7.13530E-002	-7.09510E-002	0.00000E+000	...........	1415.37
	34	8.75	-7.12217E-002	-7.08235E-002	0.00000E+000	...........	1415.37
	35	9	-7.10915E-002	-7.06992E-002	0.00000E+000	...........	1415.37
	36	9.25	-7.09628E-002	-7.05815E-002	0.00000E+000	...........	1415.37
	37	9.5	-7.08361E-002	-7.04597E-002	0.00000E+000	...........	1415.37
	38	9.75	-7.07120E-002	-7.03372E-002	0.00000E+000	...........	1415.37
	39	10	-7.05898E-002	-7.02230E-002	0.00000E+000	...........	1415.37
EOC	QUANT	-0.0705898	Open Circuit (V)
PSTATMODEL	IQUANT	64	Pstat Model
PSTATSECTION	LABEL	IFC1010-22099	Pstat Section
PSTATSERIALNO	LABEL	22099	Pstat Serial Number
CTRLMODE	IQUANT	1	Control Mode
ELECTROMETER	IQUANT	0	RE=0 or CS=1
IESTAB	IQUANT	0	I/E Stability
CASPEED	IQUANT	3	Control Amp Speed
CONVENTION	IQUANT	1	Current Convention
ICHRANGE	IQUANT	2	Ich Range
ICHRANGEMODE	TOGGLE	F	Ich Auto Range
ICHOFFSETENABLE	TOGGLE	T	Ich Offset Enable
ICHOFFSET	QUANT	0	Ich Offset (V)
ICHFILTER	IQUANT	4	Ich Filter
VCHRANGE	IQUANT	2	Vch Range
VCHRANGEMODE	TOGGLE	F	Vch Auto Range
VCHOFFSETENABLE	TOGGLE	T	Vch Offset Enable
VCHOFFSET	QUANT	0	Vch Offset (V)
VCHFILTER	IQUANT	4	Vch Filter
IERANGELOWERLIMIT	IQUANT	4	I/E Range Lower Limit
IERANGEMODE	TOGGLE	F	I/E AutoRange
IERANGE	IQUANT	7	I/E Range
ACHSELECT	IQUANT	0	Ach Select
ACHRANGE	IQUANT	2	Ach Range
ACHOFFSETENABLE	TOGGLE	F	Ach Offset Enable
ACHOFFSET	QUANT	0	Ach Offset (V)
ACHFILTER	IQUANT	1	Ach Filter
SENSECABLEID	IQUANT	14	Sense Cable ID
PWRCABLEID	IQUANT	14	Power Cable ID
DCCALDATE	LABEL	11/25/2025	DC Calibration Date
ACCALDATE	LABEL	9/8/2018	AC Calibration Date
FRAMEWORKVERSION	QUANT	7.07	Framework Version
INSTRUMENTVERSION	LABEL	4.34	Instrument Version
ZCURVE	TABLE
	Pt	Time	Freq	Zreal	Zimag	Zsig	Zmod	Zphz	Idc	Vdc	IERange
	#	s	Hz	ohm	ohm	V	ohm	°	A	V	#
	0	6	1004.464	81.42747	-34.15831	1	88.3019	-22.75774	-5.005528E-005	-1.400021	9
	1	8	800.3049	82.1685	-42.06195	1	92.30856	-27.10785	-4.855331E-005	-1.400017	9
	2	11	631.0096	83.16887	-52.41556	1	98.3079	-32.22038	-4.763461E-005	-1.400017	9
	3	13	498.6702	84.49448	-65.32611	1	106.8027	-37.70906	-4.699431E-005	-1.400016	9
	4	15	397.2458	86.21452	-80.89432	1	118.2237	-43.1765	-4.657207E-005	-1.400017	9
	5	18	319.6023	88.46224	-99.2936	1	132.9842	-48.30166	-4.62192E-005	-1.400017	9
	6	20	251.1161	91.93296	-124.6136	1	154.8555	-53.58217	-4.586981E-005	-1.400019	9
	7	22	200.8929	96.404	-153.668	1	181.4045	-57.8978	-4.554999E-005	-1.400017	9
	8	25	158.0056	103.1531	-192.3462	1	218.2604	-61.79584	-4.532492E-005	-1.400016	9
	9	27	125.558	112.3025	-238.171	1	263.3197	-64.75516	-4.503312E-005	-1.400017	9
	10	30	99.734	125.2136	-294.6103	1	320.1151	-66.9738	-4.479877E-005	-1.400016	9
	11	32	79.44915	142.7294	-362.3607	1	389.4573	-68.50114	-4.459022E-005	-1.400006	9
	12	35	63.34459	167.3306	-444.1174	1	474.5944	-69.35503	-4.412334E-005	-1.399984	8
	13	37	49.86702	203.4612	-549.2895	1	585.7605	-69.67497	-4.391054E-005	-1.399986	8
	14	39	38.10976	264.2814	-692.0358	1	740.7821	-69.09866	-4.371456E-005	-1.399987	8
	15	42	31.25	326.0716	-816.2335	1	878.9539	-68.22412	-4.3573E-005	-1.399986	8
	16	44	24.93351	421.279	-977.336	1	1064.266	-66.68162	-4.344974E-005	-1.399985	8
	17	47	19.94681	547.9973	-1154.509	1	1277.964	-64.60826	-4.325246E-005	-1.399984	8
	18	49	15.57309	735.9744	-1362.503	1	1548.572	-61.62371	-4.334847E-005	-1.399984	8
	19	52	12.40079	955.844	-1557.026	1	1827.011	-58.45463	-4.329727E-005	-1.399985	8
	20	56	9.91015	1216.489	-1740.686	1	2123.637	-55.05199	-4.322039E-005	-1.399986	8
	21	59	7.971939	1503.927	-1899.783	1	2423.009	-51.63377	-4.315513E-005	-1.399985	8
	22	63	6.351626	1832.336	-2030.503	1	2735.031	-47.93674	-4.315902E-005	-1.399982	8
	23	67	4.970838	2191.861	-2139.442	1	3062.918	-44.30663	-4.263474E-005	-1.399985	8
	24	72	3.942389	2546.247	-2228.204	1	3383.529	-41.18895	-4.197942E-005	-1.399984	8
	25	78	3.16723	2890.442	-2309.498	1	3699.789	-38.62528	-4.15348E-005	-1.399985	8
	26	84	2.485419	3291.26	-2392.17	1	4068.768	-36.01059	-4.11908E-005	-1.399985	8
	27	92	1.971194	3666.564	-2450.023	1	4409.797	-33.75111	-4.159473E-005	-1.399984	8
	28	101	1.605308	3993.399	-2482.227	1	4701.987	-31.86436	-4.231527E-005	-1.399986	8
	29	112	1.260081	4398.587	-2516.822	1	5067.738	-29.7777	-4.33602E-005	-1.399983	8
	30	125	1.001603	4809.596	-2511.295	1	5425.754	-27.57098	-4.364726E-005	-1.399981	8
