EXPLAIN
TAG	EISPOT
TITLE	LABEL	Potentiostatic EIS	Test &Identifier
DATE	LABEL	4/30/2026	Date
TIME	LABEL	14:51:58	Time
NOTES	NOTES	1	&Notes...
	
PSTAT	PSTAT	Rhea	Potentiostat
VDC	POTEN	-1.20000E+000	F	DC &Voltage (V)
FREQINIT	QUANT	1.00000E+003	Initial Fre&q. (Hz)
FREQFINAL	QUANT	1.00000E+000	Final Fre&q. (Hz)
PTSPERDEC	QUANT	1.00000E+001	Points/&decade
VAC	QUANT	1.00000E+001	AC &Voltage (mV rms)
AREA	QUANT	2.80000E-001	&Area (cm^2)
CONDIT	TWOPARAM	F	0.00000E+000	0.00000E+000	Conditionin&g	Time(s)	E(V)
DELAY	TWOPARAM	T	1.00000E+001	0.00000E+000	Init. De&lay	Time(s)	Stab.(mV/s)
SPEED	SELECTOR	2	&Optimize for:
ZGUESS	QUANT	2.86800E+005	E&stimated Z (ohms)
OCVCURVE	TABLE	40
	Pt	T	Vf	Vm	Ach	Over	Temp
	#	s	V vs. Ref.	V	V	bits	deg C
	0	0.25	-2.40550E-001	-2.40550E-001	0.00000E+000	...........	1416.25
	1	0.5	-2.40442E-001	-2.34931E-001	0.00000E+000	...........	1416.25
	2	0.75	-2.39780E-001	-2.29448E-001	0.00000E+000	...........	1416.25
	3	1	-2.37897E-001	-2.24146E-001	0.00000E+000	...........	1415.81
	4	1.25	-2.34503E-001	-2.19012E-001	0.00000E+000	...........	1415.81
	5	1.5	-2.29950E-001	-2.14030E-001	0.00000E+000	...........	1415.81
	6	1.75	-2.24848E-001	-2.09211E-001	0.00000E+000	...........	1415.81
	7	2	-2.19656E-001	-2.04530E-001	0.00000E+000	...........	1416.07
	8	2.25	-2.14591E-001	-1.99993E-001	0.00000E+000	...........	1416.07
	9	2.5	-2.09708E-001	-1.95588E-001	0.00000E+000	...........	1416.07
	10	2.75	-2.04998E-001	-1.91313E-001	0.00000E+000	...........	1416.07
	11	3	-2.00443E-001	-1.87196E-001	0.00000E+000	...........	1416.07
	12	3.25	-1.96029E-001	-1.83170E-001	0.00000E+000	...........	1416.07
	13	3.5	-1.91749E-001	-1.79249E-001	0.00000E+000	...........	1416.07
	14	3.75	-1.87595E-001	-1.75426E-001	0.00000E+000	...........	1416.07
	15	4	-1.83557E-001	-1.71700E-001	0.00000E+000	...........	1416.07
	16	4.25	-1.79626E-001	-1.68083E-001	0.00000E+000	...........	1416.07
	17	4.5	-1.75796E-001	-1.64560E-001	0.00000E+000	...........	1416.07
	18	4.75	-1.72067E-001	-1.61119E-001	0.00000E+000	...........	1416.07
	19	5	-1.68435E-001	-1.57755E-001	0.00000E+000	...........	1416.07
	20	5.25	-1.64898E-001	-1.54556E-001	0.00000E+000	...........	1416.07
	21	5.5	-1.61456E-001	-1.51401E-001	0.00000E+000	...........	1416.07
	22	5.75	-1.58111E-001	-1.48326E-001	0.00000E+000	...........	1416.07
	23	6	-1.54862E-001	-1.45329E-001	0.00000E+000	...........	1416.07
	24	6.25	-1.51701E-001	-1.42409E-001	0.00000E+000	...........	1416.07
	25	6.5	-1.48622E-001	-1.39587E-001	0.00000E+000	...........	1416.07
	26	6.75	-1.45623E-001	-1.36907E-001	0.00000E+000	...........	1416.07
	27	7	-1.42711E-001	-1.34224E-001	0.00000E+000	...........	1416.07
	28	7.25	-1.39887E-001	-1.31607E-001	0.00000E+000	...........	1416.07
	29	7.5	-1.37144E-001	-1.29049E-001	0.00000E+000	...........	1416.07
	30	7.75	-1.34468E-001	-1.26533E-001	0.00000E+000	...........	1416.07
	31	8	-1.31850E-001	-1.24079E-001	0.00000E+000	...........	1416.07
	32	8.25	-1.29285E-001	-1.21733E-001	0.00000E+000	...........	1416.07
	33	8.5	-1.26777E-001	-1.19396E-001	0.00000E+000	...........	1416.07
	34	8.75	-1.24331E-001	-1.17110E-001	0.00000E+000	...........	1416.07
	35	9	-1.21943E-001	-1.14878E-001	0.00000E+000	...........	1416.07
	36	9.25	-1.19610E-001	-1.12700E-001	0.00000E+000	...........	1416.07
	37	9.5	-1.17326E-001	-1.10578E-001	0.00000E+000	...........	1416.07
	38	9.75	-1.15092E-001	-1.08493E-001	0.00000E+000	...........	1416.07
	39	10	-1.12909E-001	-1.06461E-001	0.00000E+000	...........	1416.07
EOC	QUANT	-0.1129088	Open Circuit (V)
PSTATMODEL	IQUANT	64	Pstat Model
PSTATSECTION	LABEL	IFC1010-22099	Pstat Section
PSTATSERIALNO	LABEL	22099	Pstat Serial Number
CTRLMODE	IQUANT	1	Control Mode
ELECTROMETER	IQUANT	0	RE=0 or CS=1
IESTAB	IQUANT	0	I/E Stability
CASPEED	IQUANT	3	Control Amp Speed
CONVENTION	IQUANT	1	Current Convention
ICHRANGE	IQUANT	2	Ich Range
ICHRANGEMODE	TOGGLE	F	Ich Auto Range
ICHOFFSETENABLE	TOGGLE	T	Ich Offset Enable
ICHOFFSET	QUANT	0	Ich Offset (V)
ICHFILTER	IQUANT	4	Ich Filter
VCHRANGE	IQUANT	2	Vch Range
VCHRANGEMODE	TOGGLE	F	Vch Auto Range
VCHOFFSETENABLE	TOGGLE	T	Vch Offset Enable
VCHOFFSET	QUANT	0	Vch Offset (V)
VCHFILTER	IQUANT	4	Vch Filter
IERANGELOWERLIMIT	IQUANT	4	I/E Range Lower Limit
IERANGEMODE	TOGGLE	F	I/E AutoRange
IERANGE	IQUANT	7	I/E Range
ACHSELECT	IQUANT	0	Ach Select
ACHRANGE	IQUANT	2	Ach Range
ACHOFFSETENABLE	TOGGLE	F	Ach Offset Enable
ACHOFFSET	QUANT	0	Ach Offset (V)
ACHFILTER	IQUANT	1	Ach Filter
SENSECABLEID	IQUANT	14	Sense Cable ID
PWRCABLEID	IQUANT	14	Power Cable ID
DCCALDATE	LABEL	11/25/2025	DC Calibration Date
ACCALDATE	LABEL	9/8/2018	AC Calibration Date
FRAMEWORKVERSION	QUANT	7.07	Framework Version
INSTRUMENTVERSION	LABEL	4.34	Instrument Version
ZCURVE	TABLE
	Pt	Time	Freq	Zreal	Zimag	Zsig	Zmod	Zphz	Idc	Vdc	IERange
	#	s	Hz	ohm	ohm	V	ohm	°	A	V	#
	0	6	1004.464	105.4857	-44.98836	1	114.6787	-23.09764	-2.067298E-005	-1.200019	9
	1	8	800.3049	105.9873	-54.4178	1	119.1411	-27.17765	-2.048596E-005	-1.200017	9
	2	11	631.0096	106.8477	-66.61374	1	125.912	-31.94129	-2.039575E-005	-1.200016	9
	3	13	498.6702	107.9012	-81.6845	1	135.333	-37.12684	-2.03386E-005	-1.200015	9
	4	16	397.2458	109.0912	-99.8714	1	147.9026	-42.47364	-2.031737E-005	-1.200017	9
	5	18	319.6023	110.5102	-121.4786	1	164.2241	-47.70694	-2.032777E-005	-1.200014	9
	6	21	251.1161	112.7859	-151.5626	1	188.923	-53.34508	-2.035338E-005	-1.200018	9
	7	23	200.8929	115.4855	-186.4376	1	219.3077	-58.22458	-2.036535E-005	-1.200016	9
	8	26	158.0056	119.7074	-233.4931	1	262.3907	-62.85666	-2.012803E-005	-1.200003	8
	9	28	125.558	125.5128	-289.8859	1	315.8913	-66.58868	-2.017167E-005	-1.200002	8
	10	31	99.734	133.8486	-359.9007	1	383.9843	-69.59962	-2.023438E-005	-1.200008	8
	11	33	79.44915	144.947	-446.0414	1	469.0016	-71.99775	-2.029651E-005	-1.199995	8
	12	35	63.34459	160.5356	-551.5536	1	574.4415	-73.7718	-2.033982E-005	-1.199995	8
	13	38	49.86702	185.4275	-690.7972	1	715.2511	-74.97455	-2.038766E-005	-1.199996	8
	14	40	38.10976	223.0233	-888.0892	1	915.6647	-75.90299	-2.044942E-005	-1.199996	8
	15	43	31.25	263.9669	-1067.387	1	1099.542	-76.10934	-2.050799E-005	-1.199995	8
	16	45	24.93351	328.9541	-1313.779	1	1354.336	-75.94285	-2.058045E-005	-1.199998	8
	17	47	19.94681	419.9623	-1608.776	1	1662.687	-75.36974	-2.063576E-005	-1.199998	8
	18	50	15.57309	567.5655	-2005.257	1	2084.031	-74.19643	-2.071151E-005	-1.199997	8
	19	52	12.40079	763.9298	-2441.687	1	2558.402	-72.62668	-2.078679E-005	-1.199998	8
	20	55	9.91015	1037.104	-2939.871	1	3117.439	-70.5686	-2.084636E-005	-1.199997	8
	21	58	7.971939	1402.008	-3483.796	1	3755.324	-68.07832	-2.093288E-005	-1.199996	8
	22	62	6.351626	1914.775	-4095.725	1	4521.208	-64.94365	-2.103498E-005	-1.199995	8
	23	66	4.970838	2645.101	-4770.47	1	5454.717	-60.99277	-2.115171E-005	-1.199996	8
	24	71	3.942389	3508.703	-5372.863	1	6417.06	-56.8538	-2.130775E-005	-1.199993	8
	25	77	3.16723	4466.299	-5863.832	1	7371.048	-52.7046	-2.147327E-005	-1.199993	8
	26	83	2.485419	5649.458	-6282.795	1	8449.253	-48.03828	-2.170659E-005	-1.199994	8
	27	91	1.971194	6832.302	-6507.974	1	9435.787	-43.6073	-2.198913E-005	-1.199997	8
	28	100	1.605308	7895.149	-6628.956	1	10309.05	-40.01762	-2.225641E-005	-1.199997	8
	29	111	1.260081	9122.82	-6625.922	1	11275.14	-35.99097	-2.260599E-005	-1.199998	8
	30	124	1.001603	10261.67	-6541.366	1	12169.28	-32.51573	-2.290497E-005	-1.199997	8
