EXPLAIN
TAG	EISPOT
TITLE	LABEL	Potentiostatic EIS	Test &Identifier
DATE	LABEL	4/30/2026	Date
TIME	LABEL	15:20:21	Time
NOTES	NOTES	1	&Notes...
	
PSTAT	PSTAT	Rhea	Potentiostat
VDC	POTEN	-1.40000E+000	F	DC &Voltage (V)
FREQINIT	QUANT	1.00000E+003	Initial Fre&q. (Hz)
FREQFINAL	QUANT	1.00000E+000	Final Fre&q. (Hz)
PTSPERDEC	QUANT	1.00000E+001	Points/&decade
VAC	QUANT	1.00000E+001	AC &Voltage (mV rms)
AREA	QUANT	2.80000E-001	&Area (cm^2)
CONDIT	TWOPARAM	F	0.00000E+000	0.00000E+000	Conditionin&g	Time(s)	E(V)
DELAY	TWOPARAM	T	1.00000E+001	0.00000E+000	Init. De&lay	Time(s)	Stab.(mV/s)
SPEED	SELECTOR	2	&Optimize for:
ZGUESS	QUANT	2.86800E+005	E&stimated Z (ohms)
OCVCURVE	TABLE	40
	Pt	T	Vf	Vm	Ach	Over	Temp
	#	s	V vs. Ref.	V	V	bits	deg C
	0	0.25	-2.63255E-001	-2.63255E-001	0.00000E+000	...........	1416.43
	1	0.5	-2.63214E-001	-2.61115E-001	0.00000E+000	...........	1416.43
	2	0.75	-2.62962E-001	-2.58991E-001	0.00000E+000	...........	1416.43
	3	1	-2.62240E-001	-2.56944E-001	0.00000E+000	...........	1415.90
	4	1.25	-2.60935E-001	-2.54891E-001	0.00000E+000	...........	1415.90
	5	1.5	-2.59173E-001	-2.52894E-001	0.00000E+000	...........	1415.90
	6	1.75	-2.57180E-001	-2.50937E-001	0.00000E+000	...........	1415.90
	7	2	-2.55128E-001	-2.48999E-001	0.00000E+000	...........	1415.90
	8	2.25	-2.53099E-001	-2.47100E-001	0.00000E+000	...........	1415.90
	9	2.5	-2.51116E-001	-2.45254E-001	0.00000E+000	...........	1415.90
	10	2.75	-2.49177E-001	-2.43430E-001	0.00000E+000	...........	1415.90
	11	3	-2.47279E-001	-2.41612E-001	0.00000E+000	...........	1415.90
	12	3.25	-2.45417E-001	-2.39855E-001	0.00000E+000	...........	1415.90
	13	3.5	-2.43585E-001	-2.38114E-001	0.00000E+000	...........	1415.90
	14	3.75	-2.41784E-001	-2.36399E-001	0.00000E+000	...........	1415.90
	15	4	-2.40011E-001	-2.34710E-001	0.00000E+000	...........	1415.90
	16	4.25	-2.38268E-001	-2.33035E-001	0.00000E+000	...........	1415.90
	17	4.5	-2.36550E-001	-2.31399E-001	0.00000E+000	...........	1415.90
	18	4.75	-2.34856E-001	-2.29790E-001	0.00000E+000	...........	1415.90
	19	5	-2.33189E-001	-2.28220E-001	0.00000E+000	...........	1415.99
	20	5.25	-2.31550E-001	-2.26660E-001	0.00000E+000	...........	1415.99
	21	5.5	-2.29939E-001	-2.25124E-001	0.00000E+000	...........	1415.99
	22	5.75	-2.28356E-001	-2.23613E-001	0.00000E+000	...........	1415.99
	23	6	-2.26797E-001	-2.22130E-001	0.00000E+000	...........	1416.07
	24	6.25	-2.25261E-001	-2.20655E-001	0.00000E+000	...........	1416.07
	25	6.5	-2.23748E-001	-2.19201E-001	0.00000E+000	...........	1416.07
	26	6.75	-2.22256E-001	-2.17779E-001	0.00000E+000	...........	1416.07
	27	7	-2.20785E-001	-2.16380E-001	0.00000E+000	...........	1415.99
	28	7.25	-2.19335E-001	-2.15027E-001	0.00000E+000	...........	1415.99
	29	7.5	-2.17911E-001	-2.13684E-001	0.00000E+000	...........	1415.99
	30	7.75	-2.16515E-001	-2.12357E-001	0.00000E+000	...........	1415.99
	31	8	-2.15146E-001	-2.11050E-001	0.00000E+000	...........	1416.07
	32	8.25	-2.13800E-001	-2.09761E-001	0.00000E+000	...........	1416.07
	33	8.5	-2.12473E-001	-2.08493E-001	0.00000E+000	...........	1416.07
	34	8.75	-2.11165E-001	-2.07246E-001	0.00000E+000	...........	1416.07
	35	9	-2.09877E-001	-2.06033E-001	0.00000E+000	...........	1415.99
	36	9.25	-2.08609E-001	-2.04842E-001	0.00000E+000	...........	1415.99
	37	9.5	-2.07365E-001	-2.03664E-001	0.00000E+000	...........	1415.99
	38	9.75	-2.06145E-001	-2.02500E-001	0.00000E+000	...........	1415.99
	39	10	-2.04946E-001	-2.01356E-001	0.00000E+000	...........	1415.99
EOC	QUANT	-0.2049458	Open Circuit (V)
PSTATMODEL	IQUANT	64	Pstat Model
PSTATSECTION	LABEL	IFC1010-22099	Pstat Section
PSTATSERIALNO	LABEL	22099	Pstat Serial Number
CTRLMODE	IQUANT	1	Control Mode
ELECTROMETER	IQUANT	0	RE=0 or CS=1
IESTAB	IQUANT	0	I/E Stability
CASPEED	IQUANT	3	Control Amp Speed
CONVENTION	IQUANT	1	Current Convention
ICHRANGE	IQUANT	2	Ich Range
ICHRANGEMODE	TOGGLE	F	Ich Auto Range
ICHOFFSETENABLE	TOGGLE	T	Ich Offset Enable
ICHOFFSET	QUANT	0	Ich Offset (V)
ICHFILTER	IQUANT	4	Ich Filter
VCHRANGE	IQUANT	2	Vch Range
VCHRANGEMODE	TOGGLE	F	Vch Auto Range
VCHOFFSETENABLE	TOGGLE	T	Vch Offset Enable
VCHOFFSET	QUANT	0	Vch Offset (V)
VCHFILTER	IQUANT	4	Vch Filter
IERANGELOWERLIMIT	IQUANT	4	I/E Range Lower Limit
IERANGEMODE	TOGGLE	F	I/E AutoRange
IERANGE	IQUANT	7	I/E Range
ACHSELECT	IQUANT	0	Ach Select
ACHRANGE	IQUANT	2	Ach Range
ACHOFFSETENABLE	TOGGLE	F	Ach Offset Enable
ACHOFFSET	QUANT	0	Ach Offset (V)
ACHFILTER	IQUANT	1	Ach Filter
SENSECABLEID	IQUANT	14	Sense Cable ID
PWRCABLEID	IQUANT	14	Power Cable ID
DCCALDATE	LABEL	11/25/2025	DC Calibration Date
ACCALDATE	LABEL	9/8/2018	AC Calibration Date
FRAMEWORKVERSION	QUANT	7.07	Framework Version
INSTRUMENTVERSION	LABEL	4.34	Instrument Version
ZCURVE	TABLE
	Pt	Time	Freq	Zreal	Zimag	Zsig	Zmod	Zphz	Idc	Vdc	IERange
	#	s	Hz	ohm	ohm	V	ohm	°	A	V	#
	0	6	1004.464	87.82856	-31.51208	1	93.31059	-19.73752	-4.553359E-005	-1.400042	9
	1	8	800.3049	88.59853	-38.7141	1	96.6875	-23.60345	-4.408562E-005	-1.400043	9
	2	11	631.0096	89.58898	-48.14676	1	101.7069	-28.2544	-4.334746E-005	-1.40004	9
	3	13	498.6702	90.83538	-59.90826	1	108.8121	-33.40587	-4.292265E-005	-1.400042	9
	4	15	397.2458	92.39661	-74.09024	1	118.4335	-38.72515	-4.24729E-005	-1.40004	9
	5	18	319.6023	94.39718	-90.85579	1	131.0176	-43.90484	-4.230885E-005	-1.400041	9
	6	20	251.1161	97.5102	-113.9757	1	149.9957	-49.45185	-4.215601E-005	-1.400042	9
	7	23	200.8929	101.4658	-140.551	1	173.3491	-54.17395	-4.186515E-005	-1.400043	9
	8	25	158.0056	107.4035	-175.9693	1	206.157	-58.60204	-4.171809E-005	-1.400042	9
	9	27	125.558	115.354	-218.0158	1	246.6525	-62.1163	-4.157006E-005	-1.40004	9
	10	30	99.734	126.6165	-269.5818	1	297.8357	-64.84161	-4.172578E-005	-1.400046	9
	11	32	79.44915	141.8305	-332.0473	1	361.0696	-66.87077	-4.178356E-005	-1.400033	9
	12	35	63.34459	163.002	-407.5542	1	438.942	-68.20097	-4.143787E-005	-1.400011	8
	13	37	49.86702	194.7275	-504.41	1	540.6924	-68.89091	-4.133206E-005	-1.400013	8
	14	39	38.10976	245.7125	-634.925	1	680.8116	-68.84383	-4.158707E-005	-1.40001	8
	15	42	31.25	297.472	-750.7551	1	807.5411	-68.38503	-4.154332E-005	-1.400012	8
	16	44	24.93351	377.6624	-902.9483	1	978.746	-67.30265	-4.152858E-005	-1.400012	8
	17	47	19.94681	485.4744	-1074.058	1	1178.68	-65.67702	-4.16792E-005	-1.400012	8
	18	50	15.57309	648.28	-1287.171	1	1441.207	-63.26802	-4.158512E-005	-1.400012	8
	19	53	12.40079	847.6655	-1495.776	1	1719.268	-60.45951	-4.163945E-005	-1.400009	8
	20	56	9.91015	1095.476	-1702.329	1	2024.35	-57.23806	-4.166397E-005	-1.400011	8
	21	60	7.971939	1387.902	-1887.748	1	2343.046	-53.6761	-4.174214E-005	-1.400011	8
	22	63	6.351626	1740.329	-2056.86	1	2694.331	-49.76513	-4.189877E-005	-1.40001	8
	23	68	4.970838	2161.786	-2191.942	1	3078.625	-45.39685	-4.198686E-005	-1.400008	8
	24	73	3.942389	2580.288	-2278.098	1	3442.037	-41.44081	-4.211426E-005	-1.400009	8
	25	78	3.16723	2976.205	-2299.372	1	3760.972	-37.68914	-4.203917E-005	-1.400012	8
	26	85	2.485419	3425.288	-2310.341	1	4131.619	-33.99948	-4.205746E-005	-1.400011	8
	27	92	1.971194	3817.228	-2277.037	1	4444.786	-30.81675	-4.122819E-005	-1.400011	8
	28	102	1.605308	4143.603	-2248.429	1	4714.327	-28.48543	-4.048161E-005	-1.400011	8
	29	112	1.260081	4486.28	-2158.361	1	4978.477	-25.69233	-4.038123E-005	-1.400011	8
	30	126	1.001603	4762.406	-2091.213	1	5201.315	-23.70668	-4.037947E-005	-1.400013	8
