EXPLAIN
TAG	EISPOT
TITLE	LABEL	Potentiostatic EIS	Test &Identifier
DATE	LABEL	4/30/2026	Date
TIME	LABEL	13:24:50	Time
NOTES	NOTES	1	&Notes...
	
PSTAT	PSTAT	Titan	Potentiostat
VDC	POTEN	-1.20000E+000	F	DC &Voltage (V)
FREQINIT	QUANT	1.00000E+003	Initial Fre&q. (Hz)
FREQFINAL	QUANT	1.00000E+000	Final Fre&q. (Hz)
PTSPERDEC	QUANT	1.00000E+001	Points/&decade
VAC	QUANT	1.00000E+001	AC &Voltage (mV rms)
AREA	QUANT	2.80000E-001	&Area (cm^2)
CONDIT	TWOPARAM	F	0.00000E+000	0.00000E+000	Conditionin&g	Time(s)	E(V)
DELAY	TWOPARAM	T	1.00000E+001	0.00000E+000	Init. De&lay	Time(s)	Stab.(mV/s)
SPEED	SELECTOR	2	&Optimize for:
ZGUESS	QUANT	2.86800E+005	E&stimated Z (ohms)
OCVCURVE	TABLE	40
	Pt	T	Vf	Vm	Ach	Over	Temp
	#	s	V vs. Ref.	V	V	bits	deg C
	0	0.25	-2.64537E-002	-2.64537E-002	0.00000E+000	...........	1410.46
	1	0.5	-2.64457E-002	-2.60357E-002	0.00000E+000	...........	1410.54
	2	0.75	-2.63964E-002	-2.56244E-002	0.00000E+000	...........	1410.54
	3	1	-2.62556E-002	-2.52113E-002	0.00000E+000	...........	1410.54
	4	1.25	-2.60000E-002	-2.48031E-002	0.00000E+000	...........	1410.53
	5	1.5	-2.56529E-002	-2.43965E-002	0.00000E+000	...........	1410.45
	6	1.75	-2.52571E-002	-2.39868E-002	0.00000E+000	...........	1410.45
	7	2	-2.48459E-002	-2.36371E-002	0.00000E+000	...........	1410.45
	8	2.25	-2.44382E-002	-2.32400E-002	0.00000E+000	...........	1410.45
	9	2.5	-2.40413E-002	-2.28516E-002	0.00000E+000	...........	1410.45
	10	2.75	-2.36533E-002	-2.24837E-002	0.00000E+000	...........	1410.45
	11	3	-2.32697E-002	-2.20912E-002	0.00000E+000	...........	1410.45
	12	3.25	-2.28876E-002	-2.17061E-002	0.00000E+000	...........	1410.46
	13	3.5	-2.25053E-002	-2.13263E-002	0.00000E+000	...........	1410.63
	14	3.75	-2.21222E-002	-2.09497E-002	0.00000E+000	...........	1410.63
	15	4	-2.17396E-002	-2.05753E-002	0.00000E+000	...........	1410.63
	16	4.25	-2.13589E-002	-2.01993E-002	0.00000E+000	...........	1410.63
	17	4.5	-2.09804E-002	-1.98158E-002	0.00000E+000	...........	1410.63
	18	4.75	-2.06034E-002	-1.94614E-002	0.00000E+000	...........	1410.63
	19	5	-2.02283E-002	-1.90988E-002	0.00000E+000	...........	1410.63
	20	5.25	-1.98573E-002	-1.87605E-002	0.00000E+000	...........	1410.63
	21	5.5	-1.94928E-002	-1.84014E-002	0.00000E+000	...........	1410.63
	22	5.75	-1.91350E-002	-1.80540E-002	0.00000E+000	...........	1410.63
	23	6	-1.87818E-002	-1.77020E-002	0.00000E+000	...........	1410.63
	24	6.25	-1.84308E-002	-1.73575E-002	0.00000E+000	...........	1410.63
	25	6.5	-1.80809E-002	-1.70131E-002	0.00000E+000	...........	1410.63
	26	6.75	-1.77324E-002	-1.66729E-002	0.00000E+000	...........	1410.63
	27	7	-1.73861E-002	-1.63329E-002	0.00000E+000	...........	1410.63
	28	7.25	-1.70421E-002	-1.59973E-002	0.00000E+000	...........	1410.64
	29	7.5	-1.67006E-002	-1.56635E-002	0.00000E+000	...........	1410.80
	30	7.75	-1.63617E-002	-1.53316E-002	0.00000E+000	...........	1410.80
	31	8	-1.60251E-002	-1.50026E-002	0.00000E+000	...........	1410.80
	32	8.25	-1.56910E-002	-1.46766E-002	0.00000E+000	...........	1410.79
	33	8.5	-1.53594E-002	-1.43519E-002	0.00000E+000	...........	1410.63
	34	8.75	-1.50302E-002	-1.40315E-002	0.00000E+000	...........	1410.63
	35	9	-1.47035E-002	-1.37086E-002	0.00000E+000	...........	1410.63
	36	9.25	-1.43790E-002	-1.33914E-002	0.00000E+000	...........	1410.63
	37	9.5	-1.40566E-002	-1.30762E-002	0.00000E+000	...........	1410.63
	38	9.75	-1.37362E-002	-1.27642E-002	0.00000E+000	...........	1410.63
	39	10	-1.34183E-002	-1.24550E-002	0.00000E+000	...........	1410.63
EOC	QUANT	-0.0134183	Open Circuit (V)
PSTATMODEL	IQUANT	64	Pstat Model
PSTATSECTION	LABEL	IFC1010-22093	Pstat Section
PSTATSERIALNO	LABEL	22093	Pstat Serial Number
CTRLMODE	IQUANT	1	Control Mode
ELECTROMETER	IQUANT	0	RE=0 or CS=1
IESTAB	IQUANT	0	I/E Stability
CASPEED	IQUANT	3	Control Amp Speed
CONVENTION	IQUANT	1	Current Convention
ICHRANGE	IQUANT	2	Ich Range
ICHRANGEMODE	TOGGLE	F	Ich Auto Range
ICHOFFSETENABLE	TOGGLE	T	Ich Offset Enable
ICHOFFSET	QUANT	0	Ich Offset (V)
ICHFILTER	IQUANT	4	Ich Filter
VCHRANGE	IQUANT	2	Vch Range
VCHRANGEMODE	TOGGLE	F	Vch Auto Range
VCHOFFSETENABLE	TOGGLE	T	Vch Offset Enable
VCHOFFSET	QUANT	0	Vch Offset (V)
VCHFILTER	IQUANT	4	Vch Filter
IERANGELOWERLIMIT	IQUANT	4	I/E Range Lower Limit
IERANGEMODE	TOGGLE	F	I/E AutoRange
IERANGE	IQUANT	7	I/E Range
ACHSELECT	IQUANT	0	Ach Select
ACHRANGE	IQUANT	2	Ach Range
ACHOFFSETENABLE	TOGGLE	F	Ach Offset Enable
ACHOFFSET	QUANT	0	Ach Offset (V)
ACHFILTER	IQUANT	1	Ach Filter
SENSECABLEID	IQUANT	14	Sense Cable ID
PWRCABLEID	IQUANT	14	Power Cable ID
DCCALDATE	LABEL	11/25/2025	DC Calibration Date
ACCALDATE	LABEL	8/31/2018	AC Calibration Date
FRAMEWORKVERSION	QUANT	7.07	Framework Version
INSTRUMENTVERSION	LABEL	4.34	Instrument Version
ZCURVE	TABLE
	Pt	Time	Freq	Zreal	Zimag	Zsig	Zmod	Zphz	Idc	Vdc	IERange
	#	s	Hz	ohm	ohm	V	ohm	°	A	V	#
	0	8	1004.464	221.8786	-69.28851	1	232.4457	-17.3426	-6.472536E-005	-1.199684	9
	1	10	800.3049	207.6236	-78.19271	1	221.8595	-20.63678	-5.012369E-005	-1.199685	9
	2	13	631.0096	199.5657	-90.34576	1	219.0635	-24.35682	-4.053804E-005	-1.199683	9
	3	15	498.6702	195.6158	-106.1067	1	222.5403	-28.47647	-3.46089E-005	-1.199681	9
	4	17	397.2458	193.8969	-125.5168	1	230.9772	-32.91651	-3.054863E-005	-1.199684	9
	5	20	319.6023	193.5532	-148.682	1	244.068	-37.53043	-2.745071E-005	-1.199683	9
	6	22	251.1161	195.6989	-181.4372	1	266.8661	-42.83435	-2.493428E-005	-1.199672	8
	7	25	200.8929	198.2198	-219.6302	1	295.8522	-47.93324	-2.337321E-005	-1.199673	8
	8	27	158.0056	202.6124	-271.5185	1	338.7832	-53.26899	-2.208992E-005	-1.199676	8
	9	30	125.558	208.5775	-334.2358	1	393.9773	-58.03407	-2.103618E-005	-1.199678	8
	10	32	99.734	217.7858	-413.0455	1	466.9445	-62.19874	-2.023353E-005	-1.19968	8
	11	34	79.44915	229.6476	-510.067	1	559.3803	-65.76128	-1.951538E-005	-1.199674	8
	12	37	63.34459	246.7619	-630.2501	1	676.8358	-68.61816	-1.895006E-005	-1.199676	8
	13	39	49.86702	272.9598	-789.1448	1	835.0189	-70.91985	-1.845769E-005	-1.199673	8
	14	42	38.10976	318.0263	-1016.046	1	1064.655	-72.61968	-1.801849E-005	-1.199674	8
	15	44	31.25	364.3288	-1223.5	1	1276.593	-73.41774	-1.755905E-005	-1.199673	8
	16	47	24.93351	439.7403	-1510.078	1	1572.802	-73.76424	-1.716103E-005	-1.199672	8
	17	50	19.94681	546.6721	-1855.577	1	1934.429	-73.58448	-1.680316E-005	-1.199674	8
	18	52	15.57309	723.6413	-2322.338	1	2432.47	-72.69295	-1.651019E-005	-1.199674	8
	19	55	12.40079	964.385	-2840.143	1	2999.408	-71.24483	-1.625562E-005	-1.199673	8
	20	57	9.91015	1304.554	-3430.847	1	3670.5	-69.18107	-1.603266E-005	-1.199674	8
	21	60	7.971939	1761.372	-4081.506	1	4445.349	-66.65741	-1.575604E-005	-1.199672	8
	22	64	6.351626	2410.464	-4825.495	1	5394.046	-63.45664	-1.542735E-005	-1.199672	8
	23	68	4.970838	3357.852	-5646.084	1	6569.127	-59.25911	-1.511348E-005	-1.199672	8
	24	73	3.942389	4489.396	-6364.674	1	7788.694	-54.80233	-1.480323E-005	-1.199673	8
	25	79	3.16723	5757.055	-6929.928	1	9009.306	-50.28181	-1.454189E-005	-1.199676	8
	26	85	2.485419	7386.066	-7351.274	1	10420.9	-44.86473	-1.427438E-005	-1.199676	8
	27	92	1.971194	8979.982	-7560.226	1	11738.7	-40.09394	-1.397964E-005	-1.199675	8
	28	101	1.605308	10402.18	-7638.024	1	12905.22	-36.28878	-1.372383E-005	-1.199678	8
	29	112	1.260081	12010.96	-7524.656	1	14173.34	-32.06642	-1.348687E-005	-1.199674	8
	30	125	1.001603	13411.2	-7359.227	1	15297.66	-28.75523	-1.324368E-005	-1.199676	8
