EXPLAIN
TAG	EISPOT
TITLE	LABEL	Potentiostatic EIS	Test &Identifier
DATE	LABEL	4/30/2026	Date
TIME	LABEL	13:18:39	Time
NOTES	NOTES	1	&Notes...
	
PSTAT	PSTAT	Rhea	Potentiostat
VDC	POTEN	-1.40000E+000	F	DC &Voltage (V)
FREQINIT	QUANT	1.00000E+003	Initial Fre&q. (Hz)
FREQFINAL	QUANT	1.00000E+000	Final Fre&q. (Hz)
PTSPERDEC	QUANT	1.00000E+001	Points/&decade
VAC	QUANT	1.00000E+001	AC &Voltage (mV rms)
AREA	QUANT	2.80000E-001	&Area (cm^2)
CONDIT	TWOPARAM	F	0.00000E+000	0.00000E+000	Conditionin&g	Time(s)	E(V)
DELAY	TWOPARAM	T	1.00000E+001	0.00000E+000	Init. De&lay	Time(s)	Stab.(mV/s)
SPEED	SELECTOR	2	&Optimize for:
ZGUESS	QUANT	2.86800E+005	E&stimated Z (ohms)
OCVCURVE	TABLE	40
	Pt	T	Vf	Vm	Ach	Over	Temp
	#	s	V vs. Ref.	V	V	bits	deg C
	0	0.25	-2.54636E-001	-2.54636E-001	0.00000E+000	...........	1416.25
	1	0.5	-2.54626E-001	-2.54088E-001	0.00000E+000	...........	1416.25
	2	0.75	-2.54561E-001	-2.53549E-001	0.00000E+000	...........	1415.72
	3	1	-2.54377E-001	-2.53031E-001	0.00000E+000	...........	1415.72
	4	1.25	-2.54044E-001	-2.52500E-001	0.00000E+000	...........	1415.72
	5	1.5	-2.53595E-001	-2.51948E-001	0.00000E+000	...........	1415.72
	6	1.75	-2.53082E-001	-2.51417E-001	0.00000E+000	...........	1415.72
	7	2	-2.52544E-001	-2.50905E-001	0.00000E+000	...........	1415.72
	8	2.25	-2.52005E-001	-2.50411E-001	0.00000E+000	...........	1415.72
	9	2.5	-2.51474E-001	-2.49889E-001	0.00000E+000	...........	1415.72
	10	2.75	-2.50953E-001	-2.49348E-001	0.00000E+000	...........	1415.72
	11	3	-2.50437E-001	-2.48837E-001	0.00000E+000	...........	1415.72
	12	3.25	-2.49920E-001	-2.48342E-001	0.00000E+000	...........	1415.72
	13	3.5	-2.49402E-001	-2.47830E-001	0.00000E+000	...........	1415.72
	14	3.75	-2.48888E-001	-2.47348E-001	0.00000E+000	...........	1415.72
	15	4	-2.48381E-001	-2.46866E-001	0.00000E+000	...........	1415.72
	16	4.25	-2.47881E-001	-2.46357E-001	0.00000E+000	...........	1415.72
	17	4.5	-2.47386E-001	-2.45873E-001	0.00000E+000	...........	1415.72
	18	4.75	-2.46894E-001	-2.45386E-001	0.00000E+000	...........	1415.72
	19	5	-2.46403E-001	-2.44901E-001	0.00000E+000	...........	1415.72
	20	5.25	-2.45913E-001	-2.44423E-001	0.00000E+000	...........	1415.72
	21	5.5	-2.45426E-001	-2.43946E-001	0.00000E+000	...........	1415.72
	22	5.75	-2.44942E-001	-2.43460E-001	0.00000E+000	...........	1415.72
	23	6	-2.44460E-001	-2.42951E-001	0.00000E+000	...........	1415.72
	24	6.25	-2.43977E-001	-2.42501E-001	0.00000E+000	...........	1415.72
	25	6.5	-2.43493E-001	-2.42047E-001	0.00000E+000	...........	1415.72
	26	6.75	-2.43014E-001	-2.41592E-001	0.00000E+000	...........	1415.72
	27	7	-2.42544E-001	-2.41112E-001	0.00000E+000	...........	1415.72
	28	7.25	-2.42079E-001	-2.40630E-001	0.00000E+000	...........	1415.72
	29	7.5	-2.41614E-001	-2.40164E-001	0.00000E+000	...........	1415.72
	30	7.75	-2.41146E-001	-2.39714E-001	0.00000E+000	...........	1415.90
	31	8	-2.40676E-001	-2.39269E-001	0.00000E+000	...........	1415.90
	32	8.25	-2.40212E-001	-2.38830E-001	0.00000E+000	...........	1415.90
	33	8.5	-2.39756E-001	-2.38385E-001	0.00000E+000	...........	1415.90
	34	8.75	-2.39307E-001	-2.37950E-001	0.00000E+000	...........	1415.90
	35	9	-2.38863E-001	-2.37511E-001	0.00000E+000	...........	1415.90
	36	9.25	-2.38422E-001	-2.37071E-001	0.00000E+000	...........	1415.90
	37	9.5	-2.37983E-001	-2.36637E-001	0.00000E+000	...........	1415.90
	38	9.75	-2.37545E-001	-2.36227E-001	0.00000E+000	...........	1415.90
	39	10	-2.37111E-001	-2.35829E-001	0.00000E+000	...........	1415.90
EOC	QUANT	-0.2371112	Open Circuit (V)
PSTATMODEL	IQUANT	64	Pstat Model
PSTATSECTION	LABEL	IFC1010-22099	Pstat Section
PSTATSERIALNO	LABEL	22099	Pstat Serial Number
CTRLMODE	IQUANT	1	Control Mode
ELECTROMETER	IQUANT	0	RE=0 or CS=1
IESTAB	IQUANT	0	I/E Stability
CASPEED	IQUANT	3	Control Amp Speed
CONVENTION	IQUANT	1	Current Convention
ICHRANGE	IQUANT	2	Ich Range
ICHRANGEMODE	TOGGLE	F	Ich Auto Range
ICHOFFSETENABLE	TOGGLE	T	Ich Offset Enable
ICHOFFSET	QUANT	0	Ich Offset (V)
ICHFILTER	IQUANT	4	Ich Filter
VCHRANGE	IQUANT	2	Vch Range
VCHRANGEMODE	TOGGLE	F	Vch Auto Range
VCHOFFSETENABLE	TOGGLE	T	Vch Offset Enable
VCHOFFSET	QUANT	0	Vch Offset (V)
VCHFILTER	IQUANT	4	Vch Filter
IERANGELOWERLIMIT	IQUANT	4	I/E Range Lower Limit
IERANGEMODE	TOGGLE	F	I/E AutoRange
IERANGE	IQUANT	7	I/E Range
ACHSELECT	IQUANT	0	Ach Select
ACHRANGE	IQUANT	2	Ach Range
ACHOFFSETENABLE	TOGGLE	F	Ach Offset Enable
ACHOFFSET	QUANT	0	Ach Offset (V)
ACHFILTER	IQUANT	1	Ach Filter
SENSECABLEID	IQUANT	14	Sense Cable ID
PWRCABLEID	IQUANT	14	Power Cable ID
DCCALDATE	LABEL	11/25/2025	DC Calibration Date
ACCALDATE	LABEL	9/8/2018	AC Calibration Date
FRAMEWORKVERSION	QUANT	7.07	Framework Version
INSTRUMENTVERSION	LABEL	4.34	Instrument Version
ZCURVE	TABLE
	Pt	Time	Freq	Zreal	Zimag	Zsig	Zmod	Zphz	Idc	Vdc	IERange
	#	s	Hz	ohm	ohm	V	ohm	°	A	V	#
	0	6	1004.464	57.50555	-22.17407	1	61.6326	-21.08658	-0.000121	-1.400031	9
	1	8	800.3049	58.20023	-27.08774	1	64.19511	-24.95836	-0.0001162	-1.400035	9
	2	11	631.0096	59.09907	-33.54919	1	67.9577	-29.58259	-0.0001121	-1.40003	9
	3	13	498.6702	60.26423	-41.59628	1	73.22587	-34.61467	-0.0001089	-1.400032	9
	4	16	397.2458	61.72338	-51.28158	1	80.24697	-39.72079	-0.000107	-1.400031	9
	5	18	319.6023	63.10601	-61.25638	1	87.94721	-44.14791	-0.0001069	-1.400031	9
	6	21	251.1161	65.78234	-76.31463	1	100.7534	-49.23904	-0.0001062	-1.400034	9
	7	23	200.8929	69.38099	-93.89341	1	116.7463	-53.53806	-0.000104	-1.40003	9
	8	26	158.0056	75.03162	-117.2225	1	139.1792	-57.37756	-0.0001074	-1.40003	9
	9	28	125.558	82.35969	-144.5249	1	166.3447	-60.3227	-0.0001117	-1.400027	9
	10	31	99.734	93.00938	-177.5925	1	200.474	-62.35788	-0.0001114	-1.400031	9
	11	33	79.44915	107.5886	-217.0529	1	242.2545	-63.63334	-0.0001115	-1.400021	9
	12	35	63.34459	128.0199	-263.6863	1	293.1204	-64.10339	-0.0001108	-1.40002	9
	13	38	49.86702	158.5456	-321.7074	1	358.6535	-63.76476	-0.0001098	-1.40002	9
	14	40	38.10976	207.048	-396.7968	1	447.5674	-62.4445	-0.0001094	-1.40002	9
	15	43	31.25	255.4434	-458.7311	1	525.0577	-60.88885	-0.0001082	-1.400021	9
	16	46	24.93351	327.0027	-533.3989	1	625.6558	-58.48943	-0.0001077	-1.400022	9
	17	48	19.94681	416.9054	-608.8239	1	737.8866	-55.59776	-0.0001072	-1.400021	9
	18	51	15.57309	542.3268	-685.3275	1	873.952	-51.64404	-0.0001066	-1.400022	9
	19	54	12.40079	680.1019	-743.7086	1	1007.79	-47.5579	-0.0001061	-1.40002	9
	20	57	9.91015	830.3682	-776.1358	1	1136.617	-43.06654	-0.0001059	-1.400021	9
	21	61	7.971939	984.492	-790.5754	1	1262.63	-38.76548	-0.0001056	-1.40002	9
	22	65	6.351626	1140.885	-778.425	1	1381.146	-34.30569	-0.0001053	-1.400021	9
	23	69	4.970838	1302.56	-747.2667	1	1501.689	-29.8425	-0.0001049	-1.400022	9
	24	74	3.942389	1438.562	-700.8902	1	1600.221	-25.97608	-0.0001047	-1.400023	9
	25	79	3.16723	1547.798	-651.707	1	1679.405	-22.83374	-0.0001045	-1.400022	9
	26	86	2.485419	1666.045	-600.7368	1	1771.043	-19.82811	-0.0001047	-1.40002	9
	27	94	1.971194	1766.914	-562.8541	1	1854.397	-17.66939	-0.0001041	-1.400021	9
	28	103	1.605308	1852.792	-544.427	1	1931.124	-16.37497	-0.0001034	-1.400022	9
	29	114	1.260081	1949.339	-517.0919	1	2016.756	-14.85643	-0.0001024	-1.400022	9
	30	127	1.001603	2044.624	-497.055	1	2104.175	-13.66374	-0.0001016	-1.400025	9
