EXPLAIN
TAG	EISPOT
TITLE	LABEL	Potentiostatic EIS	Test &Identifier
DATE	LABEL	4/30/2026	Date
TIME	LABEL	12:03:58	Time
NOTES	NOTES	1	&Notes...
	
PSTAT	PSTAT	Titan	Potentiostat
VDC	POTEN	-1.60000E+000	F	DC &Voltage (V)
FREQINIT	QUANT	1.00000E+003	Initial Fre&q. (Hz)
FREQFINAL	QUANT	1.00000E+000	Final Fre&q. (Hz)
PTSPERDEC	QUANT	1.00000E+001	Points/&decade
VAC	QUANT	1.00000E+001	AC &Voltage (mV rms)
AREA	QUANT	2.80000E-001	&Area (cm^2)
CONDIT	TWOPARAM	F	0.00000E+000	0.00000E+000	Conditionin&g	Time(s)	E(V)
DELAY	TWOPARAM	T	1.00000E+001	0.00000E+000	Init. De&lay	Time(s)	Stab.(mV/s)
SPEED	SELECTOR	2	&Optimize for:
ZGUESS	QUANT	2.86800E+005	E&stimated Z (ohms)
OCVCURVE	TABLE	40
	Pt	T	Vf	Vm	Ach	Over	Temp
	#	s	V vs. Ref.	V	V	bits	deg C
	0	0.25	-3.59958E-001	-3.59958E-001	0.00000E+000	...........	1407.99
	1	0.5	-3.59944E-001	-3.59205E-001	0.00000E+000	...........	1407.99
	2	0.75	-3.59855E-001	-3.58476E-001	0.00000E+000	...........	1407.47
	3	1	-3.59602E-001	-3.57717E-001	0.00000E+000	...........	1407.47
	4	1.25	-3.59143E-001	-3.57006E-001	0.00000E+000	...........	1407.47
	5	1.5	-3.58521E-001	-3.56290E-001	0.00000E+000	...........	1407.47
	6	1.75	-3.57815E-001	-3.55605E-001	0.00000E+000	...........	1407.12
	7	2	-3.57086E-001	-3.54905E-001	0.00000E+000	...........	1407.12
	8	2.25	-3.56366E-001	-3.54219E-001	0.00000E+000	...........	1407.12
	9	2.5	-3.55659E-001	-3.53543E-001	0.00000E+000	...........	1407.12
	10	2.75	-3.54964E-001	-3.52858E-001	0.00000E+000	...........	1407.03
	11	3	-3.54277E-001	-3.52187E-001	0.00000E+000	...........	1407.03
	12	3.25	-3.53595E-001	-3.51520E-001	0.00000E+000	...........	1407.03
	13	3.5	-3.52916E-001	-3.50840E-001	0.00000E+000	...........	1407.03
	14	3.75	-3.52241E-001	-3.50169E-001	0.00000E+000	...........	1407.47
	15	4	-3.51568E-001	-3.49500E-001	0.00000E+000	...........	1407.47
	16	4.25	-3.50895E-001	-3.48834E-001	0.00000E+000	...........	1407.47
	17	4.5	-3.50223E-001	-3.48168E-001	0.00000E+000	...........	1407.47
	18	4.75	-3.49554E-001	-3.47499E-001	0.00000E+000	...........	1407.47
	19	5	-3.48886E-001	-3.46829E-001	0.00000E+000	...........	1407.47
	20	5.25	-3.48218E-001	-3.46157E-001	0.00000E+000	...........	1407.47
	21	5.5	-3.47550E-001	-3.45486E-001	0.00000E+000	...........	1407.47
	22	5.75	-3.46880E-001	-3.44793E-001	0.00000E+000	...........	1407.56
	23	6	-3.46207E-001	-3.44117E-001	0.00000E+000	...........	1407.56
	24	6.25	-3.45530E-001	-3.43444E-001	0.00000E+000	...........	1407.56
	25	6.5	-3.44852E-001	-3.42781E-001	0.00000E+000	...........	1407.56
	26	6.75	-3.44175E-001	-3.42122E-001	0.00000E+000	...........	1407.56
	27	7	-3.43503E-001	-3.41479E-001	0.00000E+000	...........	1407.56
	28	7.25	-3.42838E-001	-3.40830E-001	0.00000E+000	...........	1407.56
	29	7.5	-3.42181E-001	-3.40205E-001	0.00000E+000	...........	1407.56
	30	7.75	-3.41532E-001	-3.39581E-001	0.00000E+000	...........	1407.56
	31	8	-3.40891E-001	-3.38983E-001	0.00000E+000	...........	1407.56
	32	8.25	-3.40261E-001	-3.38391E-001	0.00000E+000	...........	1407.56
	33	8.5	-3.39644E-001	-3.37849E-001	0.00000E+000	...........	1407.56
	34	8.75	-3.39043E-001	-3.37312E-001	0.00000E+000	...........	1407.12
	35	9	-3.38463E-001	-3.36797E-001	0.00000E+000	...........	1407.12
	36	9.25	-3.37904E-001	-3.36266E-001	0.00000E+000	...........	1407.12
	37	9.5	-3.37363E-001	-3.35743E-001	0.00000E+000	...........	1407.12
	38	9.75	-3.36833E-001	-3.35237E-001	0.00000E+000	...........	1407.56
	39	10	-3.36310E-001	-3.34720E-001	0.00000E+000	...........	1407.56
EOC	QUANT	-0.3363096	Open Circuit (V)
PSTATMODEL	IQUANT	64	Pstat Model
PSTATSECTION	LABEL	IFC1010-22093	Pstat Section
PSTATSERIALNO	LABEL	22093	Pstat Serial Number
CTRLMODE	IQUANT	1	Control Mode
ELECTROMETER	IQUANT	0	RE=0 or CS=1
IESTAB	IQUANT	0	I/E Stability
CASPEED	IQUANT	3	Control Amp Speed
CONVENTION	IQUANT	1	Current Convention
ICHRANGE	IQUANT	2	Ich Range
ICHRANGEMODE	TOGGLE	F	Ich Auto Range
ICHOFFSETENABLE	TOGGLE	T	Ich Offset Enable
ICHOFFSET	QUANT	0	Ich Offset (V)
ICHFILTER	IQUANT	4	Ich Filter
VCHRANGE	IQUANT	2	Vch Range
VCHRANGEMODE	TOGGLE	F	Vch Auto Range
VCHOFFSETENABLE	TOGGLE	T	Vch Offset Enable
VCHOFFSET	QUANT	0	Vch Offset (V)
VCHFILTER	IQUANT	4	Vch Filter
IERANGELOWERLIMIT	IQUANT	4	I/E Range Lower Limit
IERANGEMODE	TOGGLE	F	I/E AutoRange
IERANGE	IQUANT	7	I/E Range
ACHSELECT	IQUANT	0	Ach Select
ACHRANGE	IQUANT	2	Ach Range
ACHOFFSETENABLE	TOGGLE	F	Ach Offset Enable
ACHOFFSET	QUANT	0	Ach Offset (V)
ACHFILTER	IQUANT	1	Ach Filter
SENSECABLEID	IQUANT	14	Sense Cable ID
PWRCABLEID	IQUANT	14	Power Cable ID
DCCALDATE	LABEL	11/25/2025	DC Calibration Date
ACCALDATE	LABEL	8/31/2018	AC Calibration Date
FRAMEWORKVERSION	QUANT	7.07	Framework Version
INSTRUMENTVERSION	LABEL	4.34	Instrument Version
ZCURVE	TABLE
	Pt	Time	Freq	Zreal	Zimag	Zsig	Zmod	Zphz	Idc	Vdc	IERange
	#	s	Hz	ohm	ohm	V	ohm	°	A	V	#
	0	6	1004.464	164.2235	-23.22355	1	165.8575	-8.049071	-4.325514E-005	-1.59978	9
	1	9	800.3049	164.6545	-28.29313	1	167.0677	-9.7501	-4.024199E-005	-1.599785	9
	2	11	631.0096	165.8551	-34.82665	1	169.4722	-11.85881	-3.820644E-005	-1.599782	9
	3	14	498.6702	166.8816	-42.87856	1	172.3022	-14.40987	-3.687655E-005	-1.599781	9
	4	16	397.2458	167.8803	-52.62906	1	175.9364	-17.40577	-3.593541E-005	-1.59978	9
	5	19	319.6023	169.372	-64.1459	1	181.1121	-20.74307	-3.51432E-005	-1.599784	9
	6	21	251.1161	172.1237	-80.01797	1	189.8142	-24.93308	-3.468331E-005	-1.599779	9
	7	23	200.8929	175.1029	-98.3564	1	200.8358	-29.32318	-3.414402E-005	-1.599781	9
	8	26	158.0056	178.7203	-122.8047	1	216.8455	-34.49426	-3.420976E-005	-1.599777	9
	9	28	125.558	183.0847	-152.1059	1	238.0257	-39.71964	-3.385028E-005	-1.599778	9
	10	31	99.734	189.7503	-188.2398	1	267.2815	-44.77104	-3.374395E-005	-1.599778	9
	11	33	79.44915	199.8611	-232.0335	1	306.2417	-49.26017	-3.374474E-005	-1.599756	8
	12	36	63.34459	212.3981	-285.5754	1	355.902	-53.35979	-3.3436E-005	-1.59976	8
	13	38	49.86702	232.0935	-354.5427	1	423.7545	-56.79012	-3.343762E-005	-1.599757	8
	14	40	38.10976	264.5202	-450.3253	1	522.2679	-59.57011	-3.339295E-005	-1.59976	8
	15	43	31.25	298.0146	-534.495	1	611.9621	-60.85758	-3.375316E-005	-1.599759	8
	16	45	24.93351	350.1425	-647.0679	1	735.7286	-61.58121	-3.361457E-005	-1.599757	8
	17	48	19.94681	423.0306	-774.876	1	882.8293	-61.3684	-3.359888E-005	-1.599761	8
	18	50	15.57309	535.85	-933.9431	1	1076.747	-60.15495	-3.378099E-005	-1.599759	8
	19	53	12.40079	673.5732	-1093.693	1	1284.47	-58.3723	-3.390697E-005	-1.599756	8
	20	55	9.91015	852.3032	-1255.188	1	1517.207	-55.82255	-3.411367E-005	-1.599759	8
	21	59	7.971939	1071.511	-1399.727	1	1762.774	-52.56542	-3.436021E-005	-1.599757	8
	22	63	6.351626	1343.369	-1524.643	1	2032.038	-48.61659	-3.470021E-005	-1.599756	8
	23	67	4.970838	1686.268	-1615.008	1	2334.899	-43.76343	-3.498178E-005	-1.599758	8
	24	72	3.942389	2023.697	-1623.12	1	2594.199	-38.7316	-3.537823E-005	-1.599756	8
	25	77	3.16723	2337.155	-1565.092	1	2812.793	-33.80852	-3.579777E-005	-1.599756	8
	26	84	2.485419	2635.364	-1431.863	1	2999.229	-28.51641	-3.628568E-005	-1.599757	8
	27	92	1.971194	2840.805	-1222.765	1	3092.786	-23.28845	-3.708106E-005	-1.599757	8
	28	101	1.605308	2954.944	-1044.104	1	3133.982	-19.46042	-3.788416E-005	-1.599758	8
	29	112	1.260081	3029.074	-847.7534	1	3145.469	-15.63545	-3.898741E-005	-1.599757	8
	30	125	1.001603	3052.723	-671.95	1	3125.802	-12.4137	-4.001861E-005	-1.599756	8
