EXPLAIN
TAG	EISPOT
TITLE	LABEL	Potentiostatic EIS	Test &Identifier
DATE	LABEL	4/30/2026	Date
TIME	LABEL	14:18:21	Time
NOTES	NOTES	1	&Notes...
	
PSTAT	PSTAT	Rhea	Potentiostat
VDC	POTEN	-1.60000E+000	F	DC &Voltage (V)
FREQINIT	QUANT	1.00000E+003	Initial Fre&q. (Hz)
FREQFINAL	QUANT	1.00000E+000	Final Fre&q. (Hz)
PTSPERDEC	QUANT	1.00000E+001	Points/&decade
VAC	QUANT	1.00000E+001	AC &Voltage (mV rms)
AREA	QUANT	2.80000E-001	&Area (cm^2)
CONDIT	TWOPARAM	F	0.00000E+000	0.00000E+000	Conditionin&g	Time(s)	E(V)
DELAY	TWOPARAM	T	1.00000E+001	0.00000E+000	Init. De&lay	Time(s)	Stab.(mV/s)
SPEED	SELECTOR	2	&Optimize for:
ZGUESS	QUANT	2.86800E+005	E&stimated Z (ohms)
OCVCURVE	TABLE	40
	Pt	T	Vf	Vm	Ach	Over	Temp
	#	s	V vs. Ref.	V	V	bits	deg C
	0	0.25	-2.54497E-001	-2.54497E-001	0.00000E+000	...........	1416.25
	1	0.5	-2.54487E-001	-2.53976E-001	0.00000E+000	...........	1416.25
	2	0.75	-2.54426E-001	-2.53446E-001	0.00000E+000	...........	1416.25
	3	1	-2.54248E-001	-2.52904E-001	0.00000E+000	...........	1415.81
	4	1.25	-2.53922E-001	-2.52385E-001	0.00000E+000	...........	1415.81
	5	1.5	-2.53478E-001	-2.51866E-001	0.00000E+000	...........	1415.81
	6	1.75	-2.52969E-001	-2.51354E-001	0.00000E+000	...........	1415.81
	7	2	-2.52441E-001	-2.50845E-001	0.00000E+000	...........	1415.81
	8	2.25	-2.51916E-001	-2.50345E-001	0.00000E+000	...........	1415.81
	9	2.5	-2.51398E-001	-2.49834E-001	0.00000E+000	...........	1415.81
	10	2.75	-2.50888E-001	-2.49339E-001	0.00000E+000	...........	1415.81
	11	3	-2.50382E-001	-2.48839E-001	0.00000E+000	...........	1415.81
	12	3.25	-2.49879E-001	-2.48348E-001	0.00000E+000	...........	1415.81
	13	3.5	-2.49378E-001	-2.47847E-001	0.00000E+000	...........	1415.81
	14	3.75	-2.48881E-001	-2.47365E-001	0.00000E+000	...........	1415.81
	15	4	-2.48385E-001	-2.46880E-001	0.00000E+000	...........	1415.81
	16	4.25	-2.47893E-001	-2.46407E-001	0.00000E+000	...........	1415.81
	17	4.5	-2.47405E-001	-2.45934E-001	0.00000E+000	...........	1415.81
	18	4.75	-2.46923E-001	-2.45452E-001	0.00000E+000	...........	1415.81
	19	5	-2.46445E-001	-2.44995E-001	0.00000E+000	...........	1415.81
	20	5.25	-2.45970E-001	-2.44532E-001	0.00000E+000	...........	1415.81
	21	5.5	-2.45499E-001	-2.44069E-001	0.00000E+000	...........	1415.81
	22	5.75	-2.45031E-001	-2.43596E-001	0.00000E+000	...........	1415.81
	23	6	-2.44565E-001	-2.43098E-001	0.00000E+000	...........	1415.81
	24	6.25	-2.44098E-001	-2.42690E-001	0.00000E+000	...........	1415.81
	25	6.5	-2.43631E-001	-2.42249E-001	0.00000E+000	...........	1415.81
	26	6.75	-2.43170E-001	-2.41793E-001	0.00000E+000	...........	1415.81
	27	7	-2.42719E-001	-2.41327E-001	0.00000E+000	...........	1415.81
	28	7.25	-2.42271E-001	-2.40863E-001	0.00000E+000	...........	1415.81
	29	7.5	-2.41820E-001	-2.40417E-001	0.00000E+000	...........	1415.81
	30	7.75	-2.41364E-001	-2.39988E-001	0.00000E+000	...........	1415.81
	31	8	-2.40910E-001	-2.39545E-001	0.00000E+000	...........	1415.46
	32	8.25	-2.40462E-001	-2.39098E-001	0.00000E+000	...........	1415.46
	33	8.5	-2.40018E-001	-2.38667E-001	0.00000E+000	...........	1415.46
	34	8.75	-2.39577E-001	-2.38229E-001	0.00000E+000	...........	1415.46
	35	9	-2.39138E-001	-2.37797E-001	0.00000E+000	...........	1415.72
	36	9.25	-2.38700E-001	-2.37370E-001	0.00000E+000	...........	1415.72
	37	9.5	-2.38265E-001	-2.36944E-001	0.00000E+000	...........	1415.72
	38	9.75	-2.37834E-001	-2.36536E-001	0.00000E+000	...........	1415.72
	39	10	-2.37407E-001	-2.36118E-001	0.00000E+000	...........	1415.99
EOC	QUANT	-0.2374065	Open Circuit (V)
PSTATMODEL	IQUANT	64	Pstat Model
PSTATSECTION	LABEL	IFC1010-22099	Pstat Section
PSTATSERIALNO	LABEL	22099	Pstat Serial Number
CTRLMODE	IQUANT	1	Control Mode
ELECTROMETER	IQUANT	0	RE=0 or CS=1
IESTAB	IQUANT	0	I/E Stability
CASPEED	IQUANT	3	Control Amp Speed
CONVENTION	IQUANT	1	Current Convention
ICHRANGE	IQUANT	2	Ich Range
ICHRANGEMODE	TOGGLE	F	Ich Auto Range
ICHOFFSETENABLE	TOGGLE	T	Ich Offset Enable
ICHOFFSET	QUANT	0	Ich Offset (V)
ICHFILTER	IQUANT	4	Ich Filter
VCHRANGE	IQUANT	2	Vch Range
VCHRANGEMODE	TOGGLE	F	Vch Auto Range
VCHOFFSETENABLE	TOGGLE	T	Vch Offset Enable
VCHOFFSET	QUANT	0	Vch Offset (V)
VCHFILTER	IQUANT	4	Vch Filter
IERANGELOWERLIMIT	IQUANT	4	I/E Range Lower Limit
IERANGEMODE	TOGGLE	F	I/E AutoRange
IERANGE	IQUANT	7	I/E Range
ACHSELECT	IQUANT	0	Ach Select
ACHRANGE	IQUANT	2	Ach Range
ACHOFFSETENABLE	TOGGLE	F	Ach Offset Enable
ACHOFFSET	QUANT	0	Ach Offset (V)
ACHFILTER	IQUANT	1	Ach Filter
SENSECABLEID	IQUANT	14	Sense Cable ID
PWRCABLEID	IQUANT	14	Power Cable ID
DCCALDATE	LABEL	11/25/2025	DC Calibration Date
ACCALDATE	LABEL	9/8/2018	AC Calibration Date
FRAMEWORKVERSION	QUANT	7.07	Framework Version
INSTRUMENTVERSION	LABEL	4.34	Instrument Version
ZCURVE	TABLE
	Pt	Time	Freq	Zreal	Zimag	Zsig	Zmod	Zphz	Idc	Vdc	IERange
	#	s	Hz	ohm	ohm	V	ohm	°	A	V	#
	0	7	1004.464	106.3353	-28.19174	1	110.009	-14.84871	-4.894869E-005	-1.600057	9
	1	10	800.3049	107.0956	-34.64732	1	112.5606	-17.92731	-4.63728E-005	-1.600059	9
	2	12	631.0096	108.0081	-43.03472	1	116.2658	-21.7243	-4.492834E-005	-1.600057	9
	3	14	498.6702	109.2568	-53.44639	1	121.6288	-26.06701	-4.41421E-005	-1.600057	9
	4	17	397.2458	110.8981	-65.96523	1	129.0341	-30.74535	-4.369405E-005	-1.600056	9
	5	19	319.6023	112.8355	-80.756	1	138.7566	-35.59118	-4.355462E-005	-1.600058	9
	6	21	251.1161	115.9412	-101.0842	1	153.8193	-41.08379	-4.357791E-005	-1.600056	9
	7	24	200.8929	119.958	-124.3897	1	172.8083	-46.03905	-4.366638E-005	-1.600052	9
	8	26	158.0056	126.1342	-155.3983	1	200.1461	-50.93433	-4.388733E-005	-1.600053	9
	9	28	125.558	134.6296	-191.9759	1	234.4779	-54.95863	-4.415802E-005	-1.600051	9
	10	31	99.734	146.8613	-236.7641	1	278.6135	-58.18929	-4.442297E-005	-1.600056	9
	11	33	79.44915	164.255	-290.0314	1	333.3136	-60.47559	-4.483305E-005	-1.600045	9
	12	36	63.34459	189.0045	-353.5454	1	400.8953	-61.87115	-4.490758E-005	-1.600017	8
	13	38	49.86702	226.9468	-432.8846	1	488.7677	-62.33348	-4.528812E-005	-1.600018	8
	14	40	38.10976	288.8745	-536.7374	1	609.5371	-61.71067	-4.570387E-005	-1.600018	8
	15	43	31.25	352.3922	-621.3703	1	714.3397	-60.44152	-4.61676E-005	-1.600018	8
	16	45	24.93351	447.7752	-722.8925	1	850.3388	-58.22503	-4.662531E-005	-1.600019	8
	17	48	19.94681	569.7678	-821.9133	1	1000.088	-55.26948	-4.713557E-005	-1.600015	8
	18	50	15.57309	739.134	-918.9644	1	1179.328	-51.18987	-4.76587E-005	-1.600015	8
	19	53	12.40079	922.6527	-983.035	1	1348.201	-46.81482	-4.823365E-005	-1.600016	8
	20	57	9.91015	1119.668	-1011.691	1	1509.031	-42.09979	-4.884522E-005	-1.600015	8
	21	60	7.971939	1311.588	-1000.802	1	1649.808	-37.34528	-4.958892E-005	-1.600014	8
	22	64	6.351626	1498.033	-950.681	1	1774.231	-32.4	-5.038107E-005	-1.600014	8
	23	68	4.970838	1669.217	-863.963	1	1879.552	-27.36545	-5.123116E-005	-1.600015	8
	24	73	3.942389	1789.692	-757.1016	1	1943.245	-22.93005	-5.219093E-005	-1.600013	8
	25	79	3.16723	1863.267	-646.5983	1	1972.271	-19.138	-5.329122E-005	-1.600012	8
	26	85	2.485419	1909.864	-538.287	1	1984.271	-15.74026	-5.454169E-005	-1.600012	8
	27	93	1.971194	1849.874	-404.1451	1	1893.507	-12.32387	-5.804147E-005	-1.600009	8
	28	110	1.605308	1763.286	-303.5522	1	1789.223	-9.76781	-6.010092E-005	-1.600007	8
	29	131	1.260081	1695.741	-227.3039	1	1710.907	-7.634647	-6.326925E-005	-1.600006	8
	30	149	1.001603	1625.086	-185.3068	1	1635.617	-6.505277	-6.641067E-005	-1.600044	9
