EXPLAIN
TAG	EISPOT
TITLE	LABEL	Potentiostatic EIS	Test &Identifier
DATE	LABEL	4/30/2026	Date
TIME	LABEL	14:12:40	Time
NOTES	NOTES	1	&Notes...
	
PSTAT	PSTAT	Rhea	Potentiostat
VDC	POTEN	-1.20000E+000	F	DC &Voltage (V)
FREQINIT	QUANT	1.00000E+003	Initial Fre&q. (Hz)
FREQFINAL	QUANT	1.00000E+000	Final Fre&q. (Hz)
PTSPERDEC	QUANT	1.00000E+001	Points/&decade
VAC	QUANT	1.00000E+001	AC &Voltage (mV rms)
AREA	QUANT	2.80000E-001	&Area (cm^2)
CONDIT	TWOPARAM	F	0.00000E+000	0.00000E+000	Conditionin&g	Time(s)	E(V)
DELAY	TWOPARAM	T	1.00000E+001	0.00000E+000	Init. De&lay	Time(s)	Stab.(mV/s)
SPEED	SELECTOR	2	&Optimize for:
ZGUESS	QUANT	2.86800E+005	E&stimated Z (ohms)
OCVCURVE	TABLE	40
	Pt	T	Vf	Vm	Ach	Over	Temp
	#	s	V vs. Ref.	V	V	bits	deg C
	0	0.25	6.82614E-002	6.82614E-002	0.00000E+000	...........	1415.81
	1	0.5	6.82736E-002	6.88990E-002	0.00000E+000	...........	1415.81
	2	0.75	6.83488E-002	6.95225E-002	0.00000E+000	...........	1415.81
	3	1	6.85626E-002	7.01237E-002	0.00000E+000	...........	1415.78
	4	1.25	6.89486E-002	7.07349E-002	0.00000E+000	...........	1415.46
	5	1.5	6.94686E-002	7.13167E-002	0.00000E+000	...........	1415.46
	6	1.75	7.00562E-002	7.18923E-002	0.00000E+000	...........	1415.46
	7	2	7.06609E-002	7.24770E-002	0.00000E+000	...........	1415.47
	8	2.25	7.12598E-002	7.30699E-002	0.00000E+000	...........	1415.63
	9	2.5	7.18501E-002	7.36511E-002	0.00000E+000	...........	1415.63
	10	2.75	7.24359E-002	7.42148E-002	0.00000E+000	...........	1415.63
	11	3	7.30183E-002	7.47718E-002	0.00000E+000	...........	1415.63
	12	3.25	7.35946E-002	7.53017E-002	0.00000E+000	...........	1415.63
	13	3.5	7.41604E-002	7.58099E-002	0.00000E+000	...........	1415.63
	14	3.75	7.47113E-002	7.63111E-002	0.00000E+000	...........	1415.63
	15	4	7.52453E-002	7.68190E-002	0.00000E+000	...........	1415.65
	16	4.25	7.57647E-002	7.73293E-002	0.00000E+000	...........	1415.90
	17	4.5	7.62755E-002	7.78495E-002	0.00000E+000	...........	1415.90
	18	4.75	7.67849E-002	7.83933E-002	0.00000E+000	...........	1415.90
	19	5	7.72991E-002	7.89416E-002	0.00000E+000	...........	1415.90
	20	5.25	7.78231E-002	7.94987E-002	0.00000E+000	...........	1415.90
	21	5.5	7.83587E-002	8.00705E-002	0.00000E+000	...........	1415.90
	22	5.75	7.89060E-002	8.06481E-002	0.00000E+000	...........	1415.90
	23	6	7.94639E-002	8.12312E-002	0.00000E+000	...........	1415.88
	24	6.25	8.00314E-002	8.18138E-002	0.00000E+000	...........	1415.63
	25	6.5	8.06062E-002	8.23887E-002	0.00000E+000	...........	1415.63
	26	6.75	8.11848E-002	8.29605E-002	0.00000E+000	...........	1415.63
	27	7	8.17639E-002	8.35350E-002	0.00000E+000	...........	1415.63
	28	7.25	8.23410E-002	8.41017E-002	0.00000E+000	...........	1415.63
	29	7.5	8.29158E-002	8.46830E-002	0.00000E+000	...........	1415.63
	30	7.75	8.34891E-002	8.52559E-002	0.00000E+000	...........	1415.63
	31	8	8.40622E-002	8.58211E-002	0.00000E+000	...........	1415.63
	32	8.25	8.46353E-002	8.63871E-002	0.00000E+000	...........	1415.63
	33	8.5	8.52067E-002	8.69505E-002	0.00000E+000	...........	1415.63
	34	8.75	8.57755E-002	8.75113E-002	0.00000E+000	...........	1415.63
	35	9	8.63414E-002	8.80622E-002	0.00000E+000	...........	1415.63
	36	9.25	8.69038E-002	8.86048E-002	0.00000E+000	...........	1415.63
	37	9.5	8.74614E-002	8.91383E-002	0.00000E+000	...........	1415.63
	38	9.75	8.80125E-002	8.96657E-002	0.00000E+000	...........	1415.63
	39	10	8.85562E-002	9.01962E-002	0.00000E+000	...........	1415.65
EOC	QUANT	0.0885562	Open Circuit (V)
PSTATMODEL	IQUANT	64	Pstat Model
PSTATSECTION	LABEL	IFC1010-22099	Pstat Section
PSTATSERIALNO	LABEL	22099	Pstat Serial Number
CTRLMODE	IQUANT	1	Control Mode
ELECTROMETER	IQUANT	0	RE=0 or CS=1
IESTAB	IQUANT	0	I/E Stability
CASPEED	IQUANT	3	Control Amp Speed
CONVENTION	IQUANT	1	Current Convention
ICHRANGE	IQUANT	2	Ich Range
ICHRANGEMODE	TOGGLE	F	Ich Auto Range
ICHOFFSETENABLE	TOGGLE	T	Ich Offset Enable
ICHOFFSET	QUANT	0	Ich Offset (V)
ICHFILTER	IQUANT	4	Ich Filter
VCHRANGE	IQUANT	2	Vch Range
VCHRANGEMODE	TOGGLE	F	Vch Auto Range
VCHOFFSETENABLE	TOGGLE	T	Vch Offset Enable
VCHOFFSET	QUANT	0	Vch Offset (V)
VCHFILTER	IQUANT	4	Vch Filter
IERANGELOWERLIMIT	IQUANT	4	I/E Range Lower Limit
IERANGEMODE	TOGGLE	F	I/E AutoRange
IERANGE	IQUANT	7	I/E Range
ACHSELECT	IQUANT	0	Ach Select
ACHRANGE	IQUANT	2	Ach Range
ACHOFFSETENABLE	TOGGLE	F	Ach Offset Enable
ACHOFFSET	QUANT	0	Ach Offset (V)
ACHFILTER	IQUANT	1	Ach Filter
SENSECABLEID	IQUANT	14	Sense Cable ID
PWRCABLEID	IQUANT	14	Power Cable ID
DCCALDATE	LABEL	11/25/2025	DC Calibration Date
ACCALDATE	LABEL	9/8/2018	AC Calibration Date
FRAMEWORKVERSION	QUANT	7.07	Framework Version
INSTRUMENTVERSION	LABEL	4.34	Instrument Version
ZCURVE	TABLE
	Pt	Time	Freq	Zreal	Zimag	Zsig	Zmod	Zphz	Idc	Vdc	IERange
	#	s	Hz	ohm	ohm	V	ohm	°	A	V	#
	0	7	1004.464	177.724	-55.72576	1	186.2557	-17.40893	-3.432916E-005	-1.200021	9
	1	9	800.3049	174.0727	-65.71555	1	186.064	-20.68242	-2.764754E-005	-1.200018	9
	2	12	631.0096	172.2428	-78.46622	1	189.2737	-24.49191	-2.411078E-005	-1.200019	9
	3	14	498.6702	172.0542	-93.94545	1	196.0316	-28.63552	-2.251444E-005	-1.200017	9
	4	17	397.2458	172.3811	-112.2449	1	205.704	-33.06993	-2.16245E-005	-1.200016	9
	5	19	319.6023	173.2685	-133.7542	1	218.8885	-37.66626	-2.114562E-005	-1.200018	9
	6	22	251.1161	175.159	-163.6815	1	239.7339	-43.05997	-2.064855E-005	-1.200006	8
	7	24	200.8929	177.6873	-198.4041	1	266.34	-48.15292	-2.048694E-005	-1.200005	8
	8	26	158.0056	181.5495	-245.5524	1	305.3788	-53.52259	-2.041301E-005	-1.200002	8
	9	29	125.558	185.9898	-302.571	1	355.1639	-58.42103	-2.034662E-005	-1.200003	8
	10	31	99.734	191.692	-374.269	1	420.5034	-62.87951	-2.029651E-005	-1.200006	8
	11	33	79.44915	200.7727	-462.5458	1	504.2403	-66.53626	-2.028597E-005	-1.199995	8
	12	36	63.34459	215.0702	-571.98	1	611.078	-69.39324	-2.027223E-005	-1.199997	8
	13	38	49.86702	238.509	-716.8748	1	755.5104	-71.59737	-2.025963E-005	-1.199994	8
	14	41	38.10976	279.671	-922.8183	1	964.266	-73.13995	-2.025914E-005	-1.199996	8
	15	43	31.25	323.8348	-1110.691	1	1156.937	-73.74534	-2.025478E-005	-1.199998	8
	16	45	24.93351	397.0556	-1369.371	1	1425.773	-73.83023	-2.025948E-005	-1.199998	8
	17	48	19.94681	503.8609	-1679.666	1	1753.611	-73.30197	-2.02621E-005	-1.199994	8
	18	50	15.57309	681.8251	-2096.523	1	2204.608	-71.98459	-2.024117E-005	-1.199994	8
	19	53	12.40079	924.6397	-2550.045	1	2712.506	-70.06949	-2.024326E-005	-1.199996	8
	20	56	9.91015	1268.225	-3058.362	1	3310.887	-67.47746	-2.024735E-005	-1.199996	8
	21	58	7.971939	1729.072	-3593.694	1	3988.023	-64.30591	-2.024808E-005	-1.199993	8
	22	62	6.351626	2366.921	-4160.578	1	4786.724	-60.36478	-2.027996E-005	-1.199994	8
	23	66	4.970838	3265.071	-4718.269	1	5737.834	-55.31653	-2.029592E-005	-1.199994	8
	24	71	3.942389	4280.311	-5120.316	1	6673.732	-50.10617	-2.034151E-005	-1.199996	8
	25	77	3.16723	5334.705	-5359.65	1	7562.071	-45.13365	-2.038489E-005	-1.199998	8
	26	83	2.485419	6540.724	-5418.449	1	8493.566	-39.63894	-2.044669E-005	-1.199996	8
	27	91	1.971194	7616.309	-5316.712	1	9288.466	-34.91771	-2.055837E-005	-1.199995	8
	28	100	1.605308	8477.212	-5155.014	1	9921.56	-31.30389	-2.074553E-005	-1.199995	8
	29	111	1.260081	9380.221	-4953.907	1	10608	-27.83955	-2.092775E-005	-1.199994	8
	30	124	1.001603	10099.09	-4773.952	1	11170.6	-25.30061	-2.104539E-005	-1.199997	8
