EXPLAIN
TAG	EISPOT
TITLE	LABEL	Potentiostatic EIS	Test &Identifier
DATE	LABEL	4/30/2026	Date
TIME	LABEL	15:17:43	Time
NOTES	NOTES	1	&Notes...
	
PSTAT	PSTAT	Rhea	Potentiostat
VDC	POTEN	-1.20000E+000	F	DC &Voltage (V)
FREQINIT	QUANT	1.00000E+003	Initial Fre&q. (Hz)
FREQFINAL	QUANT	1.00000E+000	Final Fre&q. (Hz)
PTSPERDEC	QUANT	1.00000E+001	Points/&decade
VAC	QUANT	1.00000E+001	AC &Voltage (mV rms)
AREA	QUANT	2.80000E-001	&Area (cm^2)
CONDIT	TWOPARAM	F	0.00000E+000	0.00000E+000	Conditionin&g	Time(s)	E(V)
DELAY	TWOPARAM	T	1.00000E+001	0.00000E+000	Init. De&lay	Time(s)	Stab.(mV/s)
SPEED	SELECTOR	2	&Optimize for:
ZGUESS	QUANT	2.86800E+005	E&stimated Z (ohms)
OCVCURVE	TABLE	40
	Pt	T	Vf	Vm	Ach	Over	Temp
	#	s	V vs. Ref.	V	V	bits	deg C
	0	0.25	4.78018E-002	4.78018E-002	0.00000E+000	...........	1415.90
	1	0.5	4.77913E-002	4.72532E-002	0.00000E+000	...........	1415.90
	2	0.75	4.77268E-002	4.67224E-002	0.00000E+000	...........	1415.90
	3	1	4.75434E-002	4.62116E-002	0.00000E+000	...........	1415.99
	4	1.25	4.72141E-002	4.57287E-002	0.00000E+000	...........	1415.99
	5	1.5	4.67753E-002	4.53033E-002	0.00000E+000	...........	1415.99
	6	1.75	4.62914E-002	4.48981E-002	0.00000E+000	...........	1415.99
	7	2	4.58128E-002	4.45013E-002	0.00000E+000	...........	1416.07
	8	2.25	4.53620E-002	4.41241E-002	0.00000E+000	...........	1416.07
	9	2.5	4.49404E-002	4.37454E-002	0.00000E+000	...........	1416.07
	10	2.75	4.45412E-002	4.34018E-002	0.00000E+000	...........	1416.07
	11	3	4.41591E-002	4.30878E-002	0.00000E+000	...........	1416.07
	12	3.25	4.37944E-002	4.27904E-002	0.00000E+000	...........	1416.07
	13	3.5	4.34508E-002	4.25477E-002	0.00000E+000	...........	1416.07
	14	3.75	4.31328E-002	4.23166E-002	0.00000E+000	...........	1416.07
	15	4	4.28431E-002	4.20783E-002	0.00000E+000	...........	1416.07
	16	4.25	4.25793E-002	4.18539E-002	0.00000E+000	...........	1416.07
	17	4.5	4.23341E-002	4.16257E-002	0.00000E+000	...........	1416.07
	18	4.75	4.21003E-002	4.14347E-002	0.00000E+000	...........	1416.07
	19	5	4.18751E-002	4.12377E-002	0.00000E+000	...........	1415.99
	20	5.25	4.16588E-002	4.10205E-002	0.00000E+000	...........	1415.99
	21	5.5	4.14504E-002	4.08362E-002	0.00000E+000	...........	1415.99
	22	5.75	4.12476E-002	4.06736E-002	0.00000E+000	...........	1415.99
	23	6	4.10513E-002	4.04997E-002	0.00000E+000	...........	1416.07
	24	6.25	4.08649E-002	4.03668E-002	0.00000E+000	...........	1416.07
	25	6.5	4.06910E-002	4.02390E-002	0.00000E+000	...........	1416.07
	26	6.75	4.05315E-002	4.01276E-002	0.00000E+000	...........	1416.07
	27	7	4.03879E-002	4.00320E-002	0.00000E+000	...........	1415.99
	28	7.25	4.02599E-002	3.99428E-002	0.00000E+000	...........	1415.99
	29	7.5	4.01464E-002	3.98589E-002	0.00000E+000	...........	1415.99
	30	7.75	4.00451E-002	3.97787E-002	0.00000E+000	...........	1415.99
	31	8	3.99535E-002	3.97184E-002	0.00000E+000	...........	1415.99
	32	8.25	3.98700E-002	3.96578E-002	0.00000E+000	...........	1415.99
	33	8.5	3.97943E-002	3.95938E-002	0.00000E+000	...........	1415.99
	34	8.75	3.97259E-002	3.95513E-002	0.00000E+000	...........	1415.99
	35	9	3.96636E-002	3.95052E-002	0.00000E+000	...........	1415.99
	36	9.25	3.96071E-002	3.94528E-002	0.00000E+000	...........	1415.99
	37	9.5	3.95551E-002	3.93962E-002	0.00000E+000	...........	1415.99
	38	9.75	3.95053E-002	3.93675E-002	0.00000E+000	...........	1415.99
	39	10	3.94581E-002	3.93925E-002	0.00000E+000	...........	1415.99
EOC	QUANT	0.0394581	Open Circuit (V)
PSTATMODEL	IQUANT	64	Pstat Model
PSTATSECTION	LABEL	IFC1010-22099	Pstat Section
PSTATSERIALNO	LABEL	22099	Pstat Serial Number
CTRLMODE	IQUANT	1	Control Mode
ELECTROMETER	IQUANT	0	RE=0 or CS=1
IESTAB	IQUANT	0	I/E Stability
CASPEED	IQUANT	3	Control Amp Speed
CONVENTION	IQUANT	1	Current Convention
ICHRANGE	IQUANT	2	Ich Range
ICHRANGEMODE	TOGGLE	F	Ich Auto Range
ICHOFFSETENABLE	TOGGLE	T	Ich Offset Enable
ICHOFFSET	QUANT	0	Ich Offset (V)
ICHFILTER	IQUANT	4	Ich Filter
VCHRANGE	IQUANT	2	Vch Range
VCHRANGEMODE	TOGGLE	F	Vch Auto Range
VCHOFFSETENABLE	TOGGLE	T	Vch Offset Enable
VCHOFFSET	QUANT	0	Vch Offset (V)
VCHFILTER	IQUANT	4	Vch Filter
IERANGELOWERLIMIT	IQUANT	4	I/E Range Lower Limit
IERANGEMODE	TOGGLE	F	I/E AutoRange
IERANGE	IQUANT	7	I/E Range
ACHSELECT	IQUANT	0	Ach Select
ACHRANGE	IQUANT	2	Ach Range
ACHOFFSETENABLE	TOGGLE	F	Ach Offset Enable
ACHOFFSET	QUANT	0	Ach Offset (V)
ACHFILTER	IQUANT	1	Ach Filter
SENSECABLEID	IQUANT	14	Sense Cable ID
PWRCABLEID	IQUANT	14	Power Cable ID
DCCALDATE	LABEL	11/25/2025	DC Calibration Date
ACCALDATE	LABEL	9/8/2018	AC Calibration Date
FRAMEWORKVERSION	QUANT	7.07	Framework Version
INSTRUMENTVERSION	LABEL	4.34	Instrument Version
ZCURVE	TABLE
	Pt	Time	Freq	Zreal	Zimag	Zsig	Zmod	Zphz	Idc	Vdc	IERange
	#	s	Hz	ohm	ohm	V	ohm	°	A	V	#
	0	6	1004.464	137.3292	-47.26406	1	145.235	-18.99173	-2.510805E-005	-1.200022	9
	1	8	800.3049	136.9554	-56.17779	1	148.0295	-22.30296	-2.351462E-005	-1.200019	9
	2	11	631.0096	137.1388	-67.85175	1	153.0062	-26.32469	-2.250144E-005	-1.200019	9
	3	13	498.6702	137.5768	-82.40553	1	160.3685	-30.9207	-2.180054E-005	-1.200018	9
	4	16	397.2458	138.0802	-100.1815	1	170.5945	-35.96208	-2.129833E-005	-1.200015	9
	5	18	319.6023	138.9642	-121.4514	1	184.5576	-41.1527	-2.096054E-005	-1.200015	9
	6	21	251.1161	140.7242	-151.1511	1	206.5186	-47.04595	-2.072691E-005	-1.200017	9
	7	23	200.8929	143.1465	-185.6744	1	234.4481	-52.36942	-2.055533E-005	-1.200017	9
	8	26	158.0056	147.8696	-232.2182	1	275.3011	-57.51225	-2.024491E-005	-1.200008	8
	9	28	125.558	154.5025	-287.9301	1	326.7641	-61.78211	-2.023115E-005	-1.200005	8
	10	30	99.734	164.2472	-357.0488	1	393.0152	-65.29694	-2.021584E-005	-1.200008	8
	11	33	79.44915	178.6475	-441.1519	1	475.9516	-67.95418	-2.021834E-005	-1.199997	8
	12	35	63.34459	198.6608	-543.2085	1	578.3957	-69.91166	-2.021889E-005	-1.199994	8
	13	38	49.86702	229.988	-676.7402	1	714.7529	-71.22984	-2.021721E-005	-1.199998	8
	14	40	38.10976	280.808	-863.8978	1	908.3901	-71.99336	-2.021423E-005	-1.200001	8
	15	42	31.25	331.7845	-1031.474	1	1083.522	-72.16907	-2.030652E-005	-1.199999	8
	16	45	24.93351	411.2067	-1258.587	1	1324.059	-71.9067	-2.031015E-005	-1.199999	8
	17	47	19.94681	519.1612	-1527.438	1	1613.256	-71.22761	-2.030107E-005	-1.199998	8
	18	50	15.57309	685.7987	-1881.042	1	2002.158	-69.96893	-2.039312E-005	-1.199999	8
	19	52	12.40079	898.9443	-2267.409	1	2439.107	-68.3735	-2.033918E-005	-1.199998	8
	20	55	9.91015	1185.816	-2701.514	1	2950.312	-66.30118	-2.045529E-005	-1.200001	8
	21	59	7.971939	1555.836	-3168.682	1	3530.038	-63.84878	-2.062995E-005	-1.200001	8
	22	63	6.351626	2061.327	-3682.597	1	4220.26	-60.76216	-2.087638E-005	-1.2	8
	23	67	4.970838	2758.722	-4241.429	1	5059.67	-56.95911	-2.117171E-005	-1.199997	8
	24	72	3.942389	3568.072	-4728.485	1	5923.656	-52.96213	-2.156434E-005	-1.199998	8
	25	78	3.16723	4456.33	-5125.887	1	6792.171	-48.99704	-2.203105E-005	-1.199996	8
	26	84	2.485419	5448.491	-5489.895	1	7734.662	-45.21687	-2.253696E-005	-1.199998	8
	27	92	1.971194	6572.933	-5593.993	1	8631.118	-40.39994	-2.299924E-005	-1.199997	8
	28	101	1.605308	7497.168	-5534.955	1	9318.974	-36.43744	-2.390365E-005	-1.199997	8
	29	112	1.260081	8535.44	-5370.375	1	10084.38	-32.17751	-2.492725E-005	-1.199996	8
	30	125	1.001603	9340.36	-5025.633	1	10606.57	-28.28272	-2.571144E-005	-1.199994	8
