EXPLAIN
TAG	EISPOT
TITLE	LABEL	Potentiostatic EIS	Test &Identifier
DATE	LABEL	4/30/2026	Date
TIME	LABEL	15:05:53	Time
NOTES	NOTES	1	&Notes...
	
PSTAT	PSTAT	Rhea	Potentiostat
VDC	POTEN	-1.20000E+000	F	DC &Voltage (V)
FREQINIT	QUANT	1.00000E+003	Initial Fre&q. (Hz)
FREQFINAL	QUANT	1.00000E+000	Final Fre&q. (Hz)
PTSPERDEC	QUANT	1.00000E+001	Points/&decade
VAC	QUANT	1.00000E+001	AC &Voltage (mV rms)
AREA	QUANT	2.80000E-001	&Area (cm^2)
CONDIT	TWOPARAM	F	0.00000E+000	0.00000E+000	Conditionin&g	Time(s)	E(V)
DELAY	TWOPARAM	T	1.00000E+001	0.00000E+000	Init. De&lay	Time(s)	Stab.(mV/s)
SPEED	SELECTOR	2	&Optimize for:
ZGUESS	QUANT	2.86800E+005	E&stimated Z (ohms)
OCVCURVE	TABLE	40
	Pt	T	Vf	Vm	Ach	Over	Temp
	#	s	V vs. Ref.	V	V	bits	deg C
	0	0.25	8.87290E-002	8.87290E-002	0.00000E+000	...........	1416.51
	1	0.5	8.71381E-002	5.45551E-003	0.00000E+000	...........	1415.81
	2	0.75	7.81444E-002	-3.29176E-002	0.00000E+000	.........v.	1415.81
	3	1	5.80505E-002	7.54386E-002	0.00000E+000	...........	1415.81
	4	1.25	3.71019E-002	7.01962E-002	0.00000E+000	...........	1415.81
	5	1.5	3.06843E-002	4.37097E-002	0.00000E+000	...........	1415.90
	6	1.75	3.11761E-002	-3.28071E-001	0.00000E+000	.........v.	1415.90
	7	2	1.09102E-002	9.10589E-002	0.00000E+000	...........	1415.90
	8	2.25	-2.74440E-002	6.62317E-002	0.00000E+000	...........	1415.90
	9	2.5	-4.23116E-002	7.47791E-002	0.00000E+000	...........	1415.90
	10	2.75	-1.80938E-002	-4.30882E-002	0.00000E+000	...........	1415.90
	11	3	1.44557E-002	7.37343E-002	0.00000E+000	...........	1415.90
	12	3.25	2.82827E-002	-8.11147E-002	0.00000E+000	...........	1415.90
	13	3.5	2.19700E-002	-2.19316E-002	0.00000E+000	...........	1415.90
	14	3.75	5.14515E-003	3.28276E-002	0.00000E+000	.........v.	1415.90
	15	4	-6.92538E-003	7.28464E-002	0.00000E+000	...........	1415.90
	16	4.25	-8.92112E-004	7.06208E-002	0.00000E+000	...........	1415.90
	17	4.5	2.20108E-002	1.19481E-001	0.00000E+000	...........	1415.99
	18	4.75	4.85828E-002	-1.70101E-002	0.00000E+000	...........	1415.99
	19	5	6.33548E-002	3.28276E-002	0.00000E+000	.........v.	1415.99
	20	5.25	6.01432E-002	7.22845E-002	0.00000E+000	...........	1415.99
	21	5.5	4.78985E-002	-4.29900E-002	0.00000E+000	...........	1415.90
	22	5.75	3.60124E-002	4.41901E-002	0.00000E+000	...........	1415.90
	23	6	2.23882E-002	-1.63739E-001	0.00000E+000	...........	1415.90
	24	6.25	1.84784E-003	4.53256E-002	0.00000E+000	...........	1415.90
	25	6.5	-1.84868E-002	7.11619E-002	0.00000E+000	...........	1415.99
	26	6.75	-1.97554E-002	7.09290E-002	0.00000E+000	...........	1415.99
	27	7	3.62319E-003	7.07256E-002	0.00000E+000	...........	1415.99
	28	7.25	3.51021E-002	7.07592E-002	0.00000E+000	...........	1415.99
	29	7.5	5.80355E-002	7.06403E-002	0.00000E+000	...........	1415.99
	30	7.75	6.89612E-002	7.05768E-002	0.00000E+000	...........	1415.99
	31	8	7.20514E-002	7.04307E-002	0.00000E+000	...........	1415.99
	32	8.25	7.19424E-002	7.03232E-002	0.00000E+000	...........	1415.99
	33	8.5	7.11923E-002	7.02847E-002	0.00000E+000	...........	1415.99
	34	8.75	7.06398E-002	6.98559E-002	0.00000E+000	...........	1415.99
	35	9	7.03401E-002	7.01190E-002	0.00000E+000	...........	1415.99
	36	9.25	7.01787E-002	7.01094E-002	0.00000E+000	...........	1415.99
	37	9.5	7.00793E-002	6.92066E-002	0.00000E+000	...........	1415.99
	38	9.75	6.99609E-002	6.88829E-002	0.00000E+000	...........	1415.99
	39	10	6.97345E-002	6.86643E-002	0.00000E+000	...........	1415.99
EOC	QUANT	0.0697345	Open Circuit (V)
PSTATMODEL	IQUANT	64	Pstat Model
PSTATSECTION	LABEL	IFC1010-22099	Pstat Section
PSTATSERIALNO	LABEL	22099	Pstat Serial Number
CTRLMODE	IQUANT	1	Control Mode
ELECTROMETER	IQUANT	0	RE=0 or CS=1
IESTAB	IQUANT	0	I/E Stability
CASPEED	IQUANT	3	Control Amp Speed
CONVENTION	IQUANT	1	Current Convention
ICHRANGE	IQUANT	2	Ich Range
ICHRANGEMODE	TOGGLE	F	Ich Auto Range
ICHOFFSETENABLE	TOGGLE	T	Ich Offset Enable
ICHOFFSET	QUANT	0	Ich Offset (V)
ICHFILTER	IQUANT	4	Ich Filter
VCHRANGE	IQUANT	2	Vch Range
VCHRANGEMODE	TOGGLE	F	Vch Auto Range
VCHOFFSETENABLE	TOGGLE	T	Vch Offset Enable
VCHOFFSET	QUANT	0	Vch Offset (V)
VCHFILTER	IQUANT	4	Vch Filter
IERANGELOWERLIMIT	IQUANT	4	I/E Range Lower Limit
IERANGEMODE	TOGGLE	F	I/E AutoRange
IERANGE	IQUANT	7	I/E Range
ACHSELECT	IQUANT	0	Ach Select
ACHRANGE	IQUANT	2	Ach Range
ACHOFFSETENABLE	TOGGLE	F	Ach Offset Enable
ACHOFFSET	QUANT	0	Ach Offset (V)
ACHFILTER	IQUANT	1	Ach Filter
SENSECABLEID	IQUANT	14	Sense Cable ID
PWRCABLEID	IQUANT	14	Power Cable ID
DCCALDATE	LABEL	11/25/2025	DC Calibration Date
ACCALDATE	LABEL	9/8/2018	AC Calibration Date
FRAMEWORKVERSION	QUANT	7.07	Framework Version
INSTRUMENTVERSION	LABEL	4.34	Instrument Version
ZCURVE	TABLE
	Pt	Time	Freq	Zreal	Zimag	Zsig	Zmod	Zphz	Idc	Vdc	IERange
	#	s	Hz	ohm	ohm	V	ohm	°	A	V	#
	0	6	1004.464	1049.2640	-54.71715	1	1049.8561	-2.235710	-2.238714E-005	-1.200009	8
	1	14	800.3049	869.9733	-66.95096	1	872.5457	-4.400665	-2.008116E-005	-1.200016	9
	2	17	631.0096	682.4327	-79.7477	1	687.0765	-6.665238	-1.918161E-005	-1.200009	8
	3	20	498.6702	501.0854	-95.5717	1	510.1182	-10.7983	-1.910093E-005	-1.200007	8
	4	22	397.2458	405.7669	-114.7288	1	421.6747	-15.78802	-1.886243E-005	-1.200007	8
	5	25	319.6023	355.5134	-137.283	1	381.0989	-21.11428	-1.878009E-005	-1.200005	8
	6	27	251.1161	296.8929	-168.5268	1	341.3894	-29.58076	-1.881138E-005	-1.200003	8
	7	30	200.8929	272.3155	-204.7563	1	340.7064	-36.93981	-1.87713E-005	-1.200005	8
	8	32	158.0056	259.4647	-253.5065	1	362.7499	-44.33454	-1.882927E-005	-1.200005	8
	9	34	125.558	251.5639	-311.9479	1	400.7442	-51.11628	-1.896401E-005	-1.200006	8
	10	37	99.734	246.8777	-384.8145	1	457.1989	-57.3178	-1.903101E-005	-1.200007	8
	11	39	79.44915	250.1396	-474.1503	1	536.0861	-62.18596	-1.91454E-005	-1.199996	8
	12	41	63.34459	263.6607	-583.8148	1	640.5909	-65.69525	-1.917294E-005	-1.199999	8
	13	44	49.86702	288.5534	-726.4539	1	781.6638	-68.33662	-1.927148E-005	-1.199997	8
	14	46	38.10976	336.5322	-928.313	1	987.43	-70.07339	-1.937631E-005	-1.199999	8
	15	49	31.25	387.018	-1109.428	1	1174.995	-70.76894	-1.947124E-005	-1.199999	8
	16	51	24.93351	472.362	-1356.141	1	1436.051	-70.79609	-1.94086E-005	-1.199997	8
	17	53	19.94681	592.235	-1646.582	1	1749.85	-70.21759	-1.95189E-005	-1.199999	8
	18	56	15.57309	787.198	-2027.145	1	2174.626	-68.7774	-1.971306E-005	-1.2	8
	19	58	12.40079	1037.353	-2435.2	1	2646.942	-66.92685	-1.97825E-005	-1.2	8
	20	61	9.91015	1370.651	-2888.237	1	3196.967	-64.61269	-1.983458E-005	-1.199999	8
	21	65	7.971939	1803.265	-3365.122	1	3817.828	-61.81452	-1.982586E-005	-1.199998	8
	22	69	6.351626	2390.393	-3872.268	1	4550.652	-58.31252	-1.996402E-005	-1.199998	8
	23	73	4.970838	3194.675	-4367.378	1	5411.094	-53.81506	-2.005635E-005	-1.199996	8
	24	78	3.942389	4100.156	-4747.764	1	6273.16	-49.1862	-2.027788E-005	-1.199996	8
	25	84	3.16723	5033.645	-4998.261	1	7093.672	-44.79791	-2.074738E-005	-1.199996	8
	26	90	2.485419	6120.802	-5114.02	1	7976.053	-39.87925	-2.117811E-005	-1.199994	8
	27	98	1.971194	7121.382	-5027.656	1	8717.305	-35.22188	-2.166678E-005	-1.199993	8
	28	107	1.605308	7896.058	-4864.313	1	9274.118	-31.63486	-2.230537E-005	-1.199996	8
	29	118	1.260081	8852.75	-4606.499	1	9979.53	-27.49006	-2.28385E-005	-1.199996	8
	30	131	1.001603	9653.27	-4446.176	1	10627.98	-24.73022	-2.318329E-005	-1.199994	8
