EXPLAIN
TAG	EISPOT
TITLE	LABEL	Potentiostatic EIS	Test &Identifier
DATE	LABEL	4/30/2026	Date
TIME	LABEL	13:55:47	Time
NOTES	NOTES	1	&Notes...
	
PSTAT	PSTAT	Rhea	Potentiostat
VDC	POTEN	-1.60000E+000	F	DC &Voltage (V)
FREQINIT	QUANT	1.00000E+003	Initial Fre&q. (Hz)
FREQFINAL	QUANT	1.00000E+000	Final Fre&q. (Hz)
PTSPERDEC	QUANT	1.00000E+001	Points/&decade
VAC	QUANT	1.00000E+001	AC &Voltage (mV rms)
AREA	QUANT	2.80000E-001	&Area (cm^2)
CONDIT	TWOPARAM	F	0.00000E+000	0.00000E+000	Conditionin&g	Time(s)	E(V)
DELAY	TWOPARAM	T	1.00000E+001	0.00000E+000	Init. De&lay	Time(s)	Stab.(mV/s)
SPEED	SELECTOR	2	&Optimize for:
ZGUESS	QUANT	2.86800E+005	E&stimated Z (ohms)
OCVCURVE	TABLE	40
	Pt	T	Vf	Vm	Ach	Over	Temp
	#	s	V vs. Ref.	V	V	bits	deg C
	0	0.25	-3.59528E-001	-3.59528E-001	0.00000E+000	...........	1416.34
	1	0.5	-3.59501E-001	-3.58103E-001	0.00000E+000	...........	1415.90
	2	0.75	-3.59328E-001	-3.56452E-001	0.00000E+000	...........	1415.90
	3	1	-3.58820E-001	-3.54882E-001	0.00000E+000	...........	1415.90
	4	1.25	-3.57877E-001	-3.53452E-001	0.00000E+000	...........	1415.90
	5	1.5	-3.56586E-001	-3.52108E-001	0.00000E+000	...........	1415.81
	6	1.75	-3.55131E-001	-3.50666E-001	0.00000E+000	...........	1415.81
	7	2	-3.53651E-001	-3.49133E-001	0.00000E+000	...........	1415.81
	8	2.25	-3.52188E-001	-3.47699E-001	0.00000E+000	...........	1415.81
	9	2.5	-3.50737E-001	-3.46455E-001	0.00000E+000	...........	1415.81
	10	2.75	-3.49302E-001	-3.45149E-001	0.00000E+000	...........	1415.81
	11	3	-3.47909E-001	-3.43963E-001	0.00000E+000	...........	1415.81
	12	3.25	-3.46574E-001	-3.42760E-001	0.00000E+000	...........	1415.81
	13	3.5	-3.45295E-001	-3.41485E-001	0.00000E+000	...........	1415.81
	14	3.75	-3.44052E-001	-3.40294E-001	0.00000E+000	...........	1415.81
	15	4	-3.42824E-001	-3.39008E-001	0.00000E+000	...........	1415.81
	16	4.25	-3.41596E-001	-3.37809E-001	0.00000E+000	...........	1415.81
	17	4.5	-3.40366E-001	-3.36662E-001	0.00000E+000	...........	1415.81
	18	4.75	-3.39145E-001	-3.35658E-001	0.00000E+000	...........	1415.81
	19	5	-3.37958E-001	-3.34564E-001	0.00000E+000	...........	1415.81
	20	5.25	-3.36820E-001	-3.33557E-001	0.00000E+000	...........	1415.81
	21	5.5	-3.35727E-001	-3.32426E-001	0.00000E+000	...........	1415.81
	22	5.75	-3.34657E-001	-3.31324E-001	0.00000E+000	...........	1415.81
	23	6	-3.33589E-001	-3.30265E-001	0.00000E+000	...........	1415.81
	24	6.25	-3.32513E-001	-3.29245E-001	0.00000E+000	...........	1415.81
	25	6.5	-3.31438E-001	-3.28275E-001	0.00000E+000	...........	1415.81
	26	6.75	-3.30381E-001	-3.27210E-001	0.00000E+000	...........	1415.81
	27	7	-3.29344E-001	-3.26182E-001	0.00000E+000	...........	1415.81
	28	7.25	-3.28319E-001	-3.25192E-001	0.00000E+000	...........	1415.81
	29	7.5	-3.27298E-001	-3.24213E-001	0.00000E+000	...........	1415.81
	30	7.75	-3.26285E-001	-3.23301E-001	0.00000E+000	...........	1415.81
	31	8	-3.25290E-001	-3.22326E-001	0.00000E+000	...........	1415.81
	32	8.25	-3.24315E-001	-3.21335E-001	0.00000E+000	...........	1415.81
	33	8.5	-3.23351E-001	-3.20392E-001	0.00000E+000	...........	1415.81
	34	8.75	-3.22390E-001	-3.19454E-001	0.00000E+000	...........	1415.81
	35	9	-3.21433E-001	-3.18681E-001	0.00000E+000	...........	1415.81
	36	9.25	-3.20499E-001	-3.17925E-001	0.00000E+000	...........	1415.81
	37	9.5	-3.19610E-001	-3.17159E-001	0.00000E+000	...........	1415.81
	38	9.75	-3.18773E-001	-3.16252E-001	0.00000E+000	...........	1415.81
	39	10	-3.17963E-001	-3.15311E-001	0.00000E+000	...........	1415.81
EOC	QUANT	-0.3179631	Open Circuit (V)
PSTATMODEL	IQUANT	64	Pstat Model
PSTATSECTION	LABEL	IFC1010-22099	Pstat Section
PSTATSERIALNO	LABEL	22099	Pstat Serial Number
CTRLMODE	IQUANT	1	Control Mode
ELECTROMETER	IQUANT	0	RE=0 or CS=1
IESTAB	IQUANT	0	I/E Stability
CASPEED	IQUANT	3	Control Amp Speed
CONVENTION	IQUANT	1	Current Convention
ICHRANGE	IQUANT	2	Ich Range
ICHRANGEMODE	TOGGLE	F	Ich Auto Range
ICHOFFSETENABLE	TOGGLE	T	Ich Offset Enable
ICHOFFSET	QUANT	0	Ich Offset (V)
ICHFILTER	IQUANT	4	Ich Filter
VCHRANGE	IQUANT	2	Vch Range
VCHRANGEMODE	TOGGLE	F	Vch Auto Range
VCHOFFSETENABLE	TOGGLE	T	Vch Offset Enable
VCHOFFSET	QUANT	0	Vch Offset (V)
VCHFILTER	IQUANT	4	Vch Filter
IERANGELOWERLIMIT	IQUANT	4	I/E Range Lower Limit
IERANGEMODE	TOGGLE	F	I/E AutoRange
IERANGE	IQUANT	7	I/E Range
ACHSELECT	IQUANT	0	Ach Select
ACHRANGE	IQUANT	2	Ach Range
ACHOFFSETENABLE	TOGGLE	F	Ach Offset Enable
ACHOFFSET	QUANT	0	Ach Offset (V)
ACHFILTER	IQUANT	1	Ach Filter
SENSECABLEID	IQUANT	14	Sense Cable ID
PWRCABLEID	IQUANT	14	Power Cable ID
DCCALDATE	LABEL	11/25/2025	DC Calibration Date
ACCALDATE	LABEL	9/8/2018	AC Calibration Date
FRAMEWORKVERSION	QUANT	7.07	Framework Version
INSTRUMENTVERSION	LABEL	4.34	Instrument Version
ZCURVE	TABLE
	Pt	Time	Freq	Zreal	Zimag	Zsig	Zmod	Zphz	Idc	Vdc	IERange
	#	s	Hz	ohm	ohm	V	ohm	°	A	V	#
	0	8	1004.464	91.25727	-19.54856	1	93.32758	-12.09082	-8.206517E-005	-1.600055	9
	1	10	800.3049	91.90557	-23.65397	1	94.90071	-14.43312	-8.049693E-005	-1.60005	9
	2	13	631.0096	92.76539	-28.98238	1	97.1874	-17.35019	-8.021151E-005	-1.60005	9
	3	15	498.6702	93.8202	-35.50218	1	100.3127	-20.72697	-8.091657E-005	-1.600053	9
	4	18	397.2458	95.0213	-43.36101	1	104.4472	-24.52861	-8.06412E-005	-1.600055	9
	5	20	319.6023	96.5469	-52.57115	1	109.9319	-28.56891	-8.100143E-005	-1.600052	9
	6	22	251.1161	98.7623	-65.19953	1	118.3426	-33.43143	-8.179138E-005	-1.600052	9
	7	25	200.8929	101.6227	-79.57997	1	129.0742	-38.06423	-8.290918E-005	-1.600054	9
	8	27	158.0056	105.7634	-98.6576	1	144.6348	-43.00919	-8.397602E-005	-1.600052	9
	9	29	125.558	111.3634	-121.1485	1	164.5563	-47.40984	-8.447052E-005	-1.600052	9
	10	32	99.734	119.3563	-148.5212	1	190.5373	-51.21355	-8.609564E-005	-1.600055	9
	11	34	79.44915	130.6798	-180.8493	1	223.1226	-54.14853	-8.804652E-005	-1.600041	9
	12	37	63.34459	146.3801	-219.5679	1	263.8886	-56.30966	-8.870605E-005	-1.600044	9
	13	39	49.86702	170.6851	-267.3678	1	317.2049	-57.44623	-9.020537E-005	-1.600045	9
	14	41	38.10976	210.0444	-330.2539	1	391.3903	-57.54328	-9.105959E-005	-1.600046	9
	15	44	31.25	250.4221	-381.1156	1	456.0266	-56.69203	-9.149506E-005	-1.600041	9
	16	46	24.93351	311.3636	-441.4443	1	540.204	-54.80357	-9.154488E-005	-1.600043	9
	17	48	19.94681	389.2225	-497.4882	1	631.6555	-51.96125	-9.287198E-005	-1.600043	9
	18	51	15.57309	497.2019	-547.8018	1	739.7949	-47.77214	-9.376397E-005	-1.600042	9
	19	54	12.40079	611.4453	-577.4452	1	841.0162	-43.36189	-9.441483E-005	-1.600041	9
	20	57	9.91015	730.0167	-577.8837	1	931.0607	-38.36526	-0.0000954	-1.600042	9
	21	61	7.971939	840.1332	-555.5282	1	1007.192	-33.4742	-0.0000955	-1.600042	9
	22	65	6.351626	940.73	-508.5375	1	1069.385	-28.39466	-0.0000965	-1.600042	9
	23	69	4.970838	1021.742	-437.2638	1	1111.376	-23.16895	-0.0000989	-1.600042	9
	24	74	3.942389	1069.71	-367.1644	1	1130.969	-18.94413	-0.0001	-1.600041	9
	25	80	3.16723	1092.108	-302.8356	1	1133.318	-15.4984	-0.0001018	-1.600042	9
	26	86	2.485419	1096.911	-240.5573	1	1122.979	-12.36939	-0.0001038	-1.600043	9
	27	94	1.971194	1081.431	-190.0788	1	1098.008	-9.96883	-0.0001056	-1.60004	9
	28	103	1.605308	1070.246	-154.2659	1	1081.307	-8.20215	-0.0001108	-1.60004	9
	29	114	1.260081	1040.394	-124.8405	1	1047.857	-6.842404	-0.000113	-1.600042	9
	30	127	1.001603	1021.805	-99.6783	1	1026.656	-5.571644	-0.0001152	-1.600042	9
