EXPLAIN
TAG	EISPOT
TITLE	LABEL	Potentiostatic EIS	Test &Identifier
DATE	LABEL	4/30/2026	Date
TIME	LABEL	14:15:22	Time
NOTES	NOTES	1	&Notes...
	
PSTAT	PSTAT	Rhea	Potentiostat
VDC	POTEN	-1.40000E+000	F	DC &Voltage (V)
FREQINIT	QUANT	1.00000E+003	Initial Fre&q. (Hz)
FREQFINAL	QUANT	1.00000E+000	Final Fre&q. (Hz)
PTSPERDEC	QUANT	1.00000E+001	Points/&decade
VAC	QUANT	1.00000E+001	AC &Voltage (mV rms)
AREA	QUANT	2.80000E-001	&Area (cm^2)
CONDIT	TWOPARAM	F	0.00000E+000	0.00000E+000	Conditionin&g	Time(s)	E(V)
DELAY	TWOPARAM	T	1.00000E+001	0.00000E+000	Init. De&lay	Time(s)	Stab.(mV/s)
SPEED	SELECTOR	2	&Optimize for:
ZGUESS	QUANT	2.86800E+005	E&stimated Z (ohms)
OCVCURVE	TABLE	40
	Pt	T	Vf	Vm	Ach	Over	Temp
	#	s	V vs. Ref.	V	V	bits	deg C
	0	0.25	-2.65238E-001	-2.65238E-001	0.00000E+000	...........	1416.25
	1	0.5	-2.65217E-001	-2.64105E-001	0.00000E+000	...........	1416.25
	2	0.75	-2.65083E-001	-2.62983E-001	0.00000E+000	...........	1416.25
	3	1	-2.64700E-001	-2.61855E-001	0.00000E+000	...........	1415.72
	4	1.25	-2.64005E-001	-2.60755E-001	0.00000E+000	...........	1415.72
	5	1.5	-2.63061E-001	-2.59663E-001	0.00000E+000	...........	1415.72
	6	1.75	-2.61987E-001	-2.58573E-001	0.00000E+000	...........	1415.72
	7	2	-2.60874E-001	-2.57512E-001	0.00000E+000	...........	1415.72
	8	2.25	-2.59766E-001	-2.56477E-001	0.00000E+000	...........	1415.72
	9	2.5	-2.58677E-001	-2.55422E-001	0.00000E+000	...........	1415.72
	10	2.75	-2.57609E-001	-2.54388E-001	0.00000E+000	...........	1415.72
	11	3	-2.56555E-001	-2.53377E-001	0.00000E+000	...........	1415.81
	12	3.25	-2.55513E-001	-2.52381E-001	0.00000E+000	...........	1415.81
	13	3.5	-2.54483E-001	-2.51385E-001	0.00000E+000	...........	1415.81
	14	3.75	-2.53467E-001	-2.50402E-001	0.00000E+000	...........	1415.81
	15	4	-2.52463E-001	-2.49437E-001	0.00000E+000	...........	1415.81
	16	4.25	-2.51471E-001	-2.48477E-001	0.00000E+000	...........	1415.81
	17	4.5	-2.50489E-001	-2.47533E-001	0.00000E+000	...........	1415.81
	18	4.75	-2.49519E-001	-2.46590E-001	0.00000E+000	...........	1415.81
	19	5	-2.48560E-001	-2.45668E-001	0.00000E+000	...........	1415.81
	20	5.25	-2.47612E-001	-2.44758E-001	0.00000E+000	...........	1415.81
	21	5.5	-2.46675E-001	-2.43855E-001	0.00000E+000	...........	1415.81
	22	5.75	-2.45749E-001	-2.42934E-001	0.00000E+000	...........	1415.81
	23	6	-2.44833E-001	-2.42069E-001	0.00000E+000	...........	1415.81
	24	6.25	-2.43925E-001	-2.41192E-001	0.00000E+000	...........	1415.81
	25	6.5	-2.43027E-001	-2.40321E-001	0.00000E+000	...........	1415.81
	26	6.75	-2.42140E-001	-2.39457E-001	0.00000E+000	...........	1415.81
	27	7	-2.41263E-001	-2.38611E-001	0.00000E+000	...........	1415.90
	28	7.25	-2.40394E-001	-2.37757E-001	0.00000E+000	...........	1415.90
	29	7.5	-2.39532E-001	-2.36915E-001	0.00000E+000	...........	1415.90
	30	7.75	-2.38677E-001	-2.36083E-001	0.00000E+000	...........	1415.90
	31	8	-2.37829E-001	-2.35262E-001	0.00000E+000	...........	1415.90
	32	8.25	-2.36988E-001	-2.34450E-001	0.00000E+000	...........	1415.90
	33	8.5	-2.36156E-001	-2.33649E-001	0.00000E+000	...........	1415.90
	34	8.75	-2.35333E-001	-2.32854E-001	0.00000E+000	...........	1415.90
	35	9	-2.34520E-001	-2.32063E-001	0.00000E+000	...........	1415.99
	36	9.25	-2.33716E-001	-2.31283E-001	0.00000E+000	...........	1415.99
	37	9.5	-2.32920E-001	-2.30500E-001	0.00000E+000	...........	1415.99
	38	9.75	-2.32130E-001	-2.29734E-001	0.00000E+000	...........	1415.99
	39	10	-2.31346E-001	-2.28968E-001	0.00000E+000	...........	1415.90
EOC	QUANT	-0.2313461	Open Circuit (V)
PSTATMODEL	IQUANT	64	Pstat Model
PSTATSECTION	LABEL	IFC1010-22099	Pstat Section
PSTATSERIALNO	LABEL	22099	Pstat Serial Number
CTRLMODE	IQUANT	1	Control Mode
ELECTROMETER	IQUANT	0	RE=0 or CS=1
IESTAB	IQUANT	0	I/E Stability
CASPEED	IQUANT	3	Control Amp Speed
CONVENTION	IQUANT	1	Current Convention
ICHRANGE	IQUANT	2	Ich Range
ICHRANGEMODE	TOGGLE	F	Ich Auto Range
ICHOFFSETENABLE	TOGGLE	T	Ich Offset Enable
ICHOFFSET	QUANT	0	Ich Offset (V)
ICHFILTER	IQUANT	4	Ich Filter
VCHRANGE	IQUANT	2	Vch Range
VCHRANGEMODE	TOGGLE	F	Vch Auto Range
VCHOFFSETENABLE	TOGGLE	T	Vch Offset Enable
VCHOFFSET	QUANT	0	Vch Offset (V)
VCHFILTER	IQUANT	4	Vch Filter
IERANGELOWERLIMIT	IQUANT	4	I/E Range Lower Limit
IERANGEMODE	TOGGLE	F	I/E AutoRange
IERANGE	IQUANT	7	I/E Range
ACHSELECT	IQUANT	0	Ach Select
ACHRANGE	IQUANT	2	Ach Range
ACHOFFSETENABLE	TOGGLE	F	Ach Offset Enable
ACHOFFSET	QUANT	0	Ach Offset (V)
ACHFILTER	IQUANT	1	Ach Filter
SENSECABLEID	IQUANT	14	Sense Cable ID
PWRCABLEID	IQUANT	14	Power Cable ID
DCCALDATE	LABEL	11/25/2025	DC Calibration Date
ACCALDATE	LABEL	9/8/2018	AC Calibration Date
FRAMEWORKVERSION	QUANT	7.07	Framework Version
INSTRUMENTVERSION	LABEL	4.34	Instrument Version
ZCURVE	TABLE
	Pt	Time	Freq	Zreal	Zimag	Zsig	Zmod	Zphz	Idc	Vdc	IERange
	#	s	Hz	ohm	ohm	V	ohm	°	A	V	#
	0	7	1004.464	119.4148	-34.85951	1	124.3989	-16.27355	-3.118021E-005	-1.40004	9
	1	10	800.3049	119.9785	-42.72916	1	127.3602	-19.60285	-2.961133E-005	-1.400042	9
	2	12	631.0096	120.6303	-53.0481	1	131.7793	-23.73786	-2.87104E-005	-1.400038	9
	3	14	498.6702	121.8328	-65.89712	1	138.5123	-28.40814	-2.805556E-005	-1.400037	9
	4	17	397.2458	123.3624	-81.47304	1	147.8382	-33.44223	-2.764288E-005	-1.400037	9
	5	19	319.6023	124.9576	-99.9022	1	159.9839	-38.64194	-2.729616E-005	-1.400038	9
	6	21	251.1161	127.4244	-125.4708	1	178.8293	-44.55742	-2.70977E-005	-1.400038	9
	7	24	200.8929	130.6865	-155.0472	1	202.7772	-49.87307	-2.686461E-005	-1.400037	9
	8	26	158.0056	135.7204	-194.6776	1	237.317	-55.11753	-2.668317E-005	-1.400038	9
	9	29	125.558	142.785	-242.0374	1	281.0154	-59.46239	-2.623174E-005	-1.400023	8
	10	31	99.734	153.1182	-300.8425	1	337.5668	-63.02551	-2.61069E-005	-1.400027	8
	11	34	79.44915	167.5353	-372.2967	1	408.2559	-65.77203	-2.603422E-005	-1.400016	8
	12	36	63.34459	187.8925	-459.6198	1	496.542	-67.76527	-2.591186E-005	-1.400014	8
	13	39	49.86702	219.6175	-573.4134	1	614.0316	-69.04315	-2.582477E-005	-1.400015	8
	14	41	38.10976	272.6806	-732.091	1	781.2247	-69.57124	-2.57439E-005	-1.400016	8
	15	43	31.25	328.4193	-873.2583	1	932.9734	-69.38947	-2.565376E-005	-1.400015	8
	16	46	24.93351	417.5379	-1061.605	1	1140.764	-68.52988	-2.557283E-005	-1.400015	8
	17	49	19.94681	541.6775	-1277.156	1	1387.279	-67.01685	-2.550525E-005	-1.400016	8
	18	52	15.57309	736.6241	-1546.884	1	1713.32	-64.53627	-2.545178E-005	-1.400015	8
	19	55	12.40079	983.396	-1813.901	1	2063.323	-61.53591	-2.538367E-005	-1.400013	8
	20	58	9.91015	1301.378	-2076.956	1	2450.986	-57.92957	-2.534855E-005	-1.400015	8
	21	61	7.971939	1684.021	-2310.007	1	2858.681	-53.90754	-2.526884E-005	-1.400015	8
	22	65	6.351626	2150.188	-2500.146	1	3297.581	-49.30365	-2.521841E-005	-1.400018	8
	23	70	4.970838	2698.054	-2620.188	1	3760.968	-44.16117	-2.515604E-005	-1.400015	8
	24	74	3.942389	3216.989	-2651.933	1	4169.144	-39.50055	-2.512867E-005	-1.400015	8
	25	80	3.16723	3675.058	-2631.671	1	4520.148	-35.60606	-2.511683E-005	-1.400016	8
	26	87	2.485419	4137.504	-2576.99	1	4874.405	-31.91617	-2.507963E-005	-1.400015	8
	27	94	1.971194	4515.575	-2535.675	1	5178.809	-29.31594	-2.506848E-005	-1.400016	8
	28	104	1.605308	4826.164	-2537.094	1	5452.403	-27.73071	-2.503265E-005	-1.400016	8
	29	114	1.260081	5156.629	-2587.469	1	5769.387	-26.64636	-2.500072E-005	-1.400014	8
	30	128	1.001603	5482.43	-2686.457	1	6105.251	-26.10541	-2.500769E-005	-1.400017	8
