EXPLAIN
TAG	EISPOT
TITLE	LABEL	Potentiostatic EIS	Test &Identifier
DATE	LABEL	4/30/2026	Date
TIME	LABEL	12:32:43	Time
NOTES	NOTES	1	&Notes...
	
PSTAT	PSTAT	Titan	Potentiostat
VDC	POTEN	-1.60000E+000	F	DC &Voltage (V)
FREQINIT	QUANT	1.00000E+003	Initial Fre&q. (Hz)
FREQFINAL	QUANT	1.00000E+000	Final Fre&q. (Hz)
PTSPERDEC	QUANT	1.00000E+001	Points/&decade
VAC	QUANT	1.00000E+001	AC &Voltage (mV rms)
AREA	QUANT	2.80000E-001	&Area (cm^2)
CONDIT	TWOPARAM	F	0.00000E+000	0.00000E+000	Conditionin&g	Time(s)	E(V)
DELAY	TWOPARAM	T	1.00000E+001	0.00000E+000	Init. De&lay	Time(s)	Stab.(mV/s)
SPEED	SELECTOR	2	&Optimize for:
ZGUESS	QUANT	2.86800E+005	E&stimated Z (ohms)
OCVCURVE	TABLE	40
	Pt	T	Vf	Vm	Ach	Over	Temp
	#	s	V vs. Ref.	V	V	bits	deg C
	0	0.25	-1.90707E-001	-1.90707E-001	0.00000E+000	...........	1409.92
	1	0.5	-1.90705E-001	-1.90602E-001	0.00000E+000	...........	1409.92
	2	0.75	-1.90693E-001	-1.90497E-001	0.00000E+000	...........	1410.01
	3	1	-1.90657E-001	-1.90398E-001	0.00000E+000	...........	1410.19
	4	1.25	-1.90593E-001	-1.90298E-001	0.00000E+000	...........	1410.19
	5	1.5	-1.90507E-001	-1.90194E-001	0.00000E+000	...........	1410.19
	6	1.75	-1.90409E-001	-1.90091E-001	0.00000E+000	...........	1410.16
	7	2	-1.90306E-001	-1.89994E-001	0.00000E+000	...........	1410.10
	8	2.25	-1.90203E-001	-1.89889E-001	0.00000E+000	...........	1410.10
	9	2.5	-1.90101E-001	-1.89791E-001	0.00000E+000	...........	1410.10
	10	2.75	-1.90000E-001	-1.89690E-001	0.00000E+000	...........	1410.10
	11	3	-1.89899E-001	-1.89591E-001	0.00000E+000	...........	1410.10
	12	3.25	-1.89798E-001	-1.89491E-001	0.00000E+000	...........	1410.10
	13	3.5	-1.89698E-001	-1.89389E-001	0.00000E+000	...........	1410.10
	14	3.75	-1.89598E-001	-1.89289E-001	0.00000E+000	...........	1410.10
	15	4	-1.89498E-001	-1.89196E-001	0.00000E+000	...........	1410.10
	16	4.25	-1.89398E-001	-1.89096E-001	0.00000E+000	...........	1410.10
	17	4.5	-1.89300E-001	-1.88996E-001	0.00000E+000	...........	1410.10
	18	4.75	-1.89201E-001	-1.88887E-001	0.00000E+000	...........	1410.10
	19	5	-1.89102E-001	-1.88792E-001	0.00000E+000	...........	1410.10
	20	5.25	-1.89001E-001	-1.88698E-001	0.00000E+000	...........	1410.10
	21	5.5	-1.88901E-001	-1.88604E-001	0.00000E+000	...........	1410.10
	22	5.75	-1.88802E-001	-1.88509E-001	0.00000E+000	...........	1410.10
	23	6	-1.88706E-001	-1.88417E-001	0.00000E+000	...........	1410.10
	24	6.25	-1.88611E-001	-1.88322E-001	0.00000E+000	...........	1410.10
	25	6.5	-1.88517E-001	-1.88231E-001	0.00000E+000	...........	1410.10
	26	6.75	-1.88423E-001	-1.88135E-001	0.00000E+000	...........	1410.10
	27	7	-1.88330E-001	-1.88044E-001	0.00000E+000	...........	1410.10
	28	7.25	-1.88237E-001	-1.87953E-001	0.00000E+000	...........	1410.10
	29	7.5	-1.88144E-001	-1.87863E-001	0.00000E+000	...........	1410.10
	30	7.75	-1.88052E-001	-1.87768E-001	0.00000E+000	...........	1410.10
	31	8	-1.87960E-001	-1.87677E-001	0.00000E+000	...........	1410.10
	32	8.25	-1.87868E-001	-1.87588E-001	0.00000E+000	...........	1410.10
	33	8.5	-1.87777E-001	-1.87498E-001	0.00000E+000	...........	1410.10
	34	8.75	-1.87686E-001	-1.87412E-001	0.00000E+000	...........	1410.10
	35	9	-1.87596E-001	-1.87321E-001	0.00000E+000	...........	1410.10
	36	9.25	-1.87506E-001	-1.87233E-001	0.00000E+000	...........	1410.10
	37	9.5	-1.87417E-001	-1.87141E-001	0.00000E+000	...........	1410.10
	38	9.75	-1.87328E-001	-1.87054E-001	0.00000E+000	...........	1410.10
	39	10	-1.87239E-001	-1.86964E-001	0.00000E+000	...........	1410.10
EOC	QUANT	-0.187239	Open Circuit (V)
PSTATMODEL	IQUANT	64	Pstat Model
PSTATSECTION	LABEL	IFC1010-22093	Pstat Section
PSTATSERIALNO	LABEL	22093	Pstat Serial Number
CTRLMODE	IQUANT	1	Control Mode
ELECTROMETER	IQUANT	0	RE=0 or CS=1
IESTAB	IQUANT	0	I/E Stability
CASPEED	IQUANT	3	Control Amp Speed
CONVENTION	IQUANT	1	Current Convention
ICHRANGE	IQUANT	2	Ich Range
ICHRANGEMODE	TOGGLE	F	Ich Auto Range
ICHOFFSETENABLE	TOGGLE	T	Ich Offset Enable
ICHOFFSET	QUANT	0	Ich Offset (V)
ICHFILTER	IQUANT	4	Ich Filter
VCHRANGE	IQUANT	2	Vch Range
VCHRANGEMODE	TOGGLE	F	Vch Auto Range
VCHOFFSETENABLE	TOGGLE	T	Vch Offset Enable
VCHOFFSET	QUANT	0	Vch Offset (V)
VCHFILTER	IQUANT	4	Vch Filter
IERANGELOWERLIMIT	IQUANT	4	I/E Range Lower Limit
IERANGEMODE	TOGGLE	F	I/E AutoRange
IERANGE	IQUANT	7	I/E Range
ACHSELECT	IQUANT	0	Ach Select
ACHRANGE	IQUANT	2	Ach Range
ACHOFFSETENABLE	TOGGLE	F	Ach Offset Enable
ACHOFFSET	QUANT	0	Ach Offset (V)
ACHFILTER	IQUANT	1	Ach Filter
SENSECABLEID	IQUANT	14	Sense Cable ID
PWRCABLEID	IQUANT	14	Power Cable ID
DCCALDATE	LABEL	11/25/2025	DC Calibration Date
ACCALDATE	LABEL	8/31/2018	AC Calibration Date
FRAMEWORKVERSION	QUANT	7.07	Framework Version
INSTRUMENTVERSION	LABEL	4.34	Instrument Version
ZCURVE	TABLE
	Pt	Time	Freq	Zreal	Zimag	Zsig	Zmod	Zphz	Idc	Vdc	IERange
	#	s	Hz	ohm	ohm	V	ohm	°	A	V	#
	0	7	1004.464	92.97154	-28.89438	1	97.3581	-17.26459	-6.006186E-005	-1.599758	9
	1	9	800.3049	94.02781	-35.23903	1	100.4142	-20.54461	-5.294466E-005	-1.599763	9
	2	12	631.0096	95.3371	-43.46017	1	104.7757	-24.50624	-4.851636E-005	-1.599764	9
	3	14	498.6702	96.9214	-53.61173	1	110.7609	-28.94903	-4.57055E-005	-1.599766	9
	4	16	397.2458	98.8634	-65.86035	1	118.7921	-33.67058	-4.376826E-005	-1.599764	9
	5	19	319.6023	101.2274	-80.27845	1	129.196	-38.4162	-4.236021E-005	-1.599763	9
	6	21	251.1161	104.7207	-100.0413	1	144.8264	-43.69084	-4.131564E-005	-1.599762	9
	7	23	200.8929	109.0275	-122.6526	1	164.1056	-48.36568	-4.048838E-005	-1.599762	9
	8	26	158.0056	115.2182	-152.5783	1	191.1946	-52.94204	-3.985959E-005	-1.599762	9
	9	28	125.558	123.4325	-187.9892	1	224.8901	-56.71135	-3.937597E-005	-1.599766	9
	10	30	99.734	134.8156	-231.4318	1	267.8357	-59.77798	-3.900452E-005	-1.599766	9
	11	33	79.44915	150.1884	-283.5524	1	320.8715	-62.0913	-3.874409E-005	-1.599761	9
	12	35	63.34459	171.5093	-346.2702	1	386.4175	-63.65057	-3.815809E-005	-1.59974	8
	13	37	49.86702	203.739	-426.3917	1	472.5669	-64.46053	-3.798335E-005	-1.599739	8
	14	40	38.10976	255.8672	-534.2096	1	592.3242	-64.40725	-3.783363E-005	-1.599739	8
	15	42	31.25	309.6996	-626.9337	1	699.2565	-63.71104	-3.772202E-005	-1.599741	8
	16	45	24.93351	391.7189	-743.8052	1	840.6485	-62.22684	-3.76955E-005	-1.59974	8
	17	47	19.94681	499.8341	-869.1212	1	1002.599	-60.09667	-3.765304E-005	-1.599739	8
	18	50	15.57309	657.9768	-1012.278	1	1207.328	-56.97629	-3.76481E-005	-1.599738	8
	19	53	12.40079	842.2278	-1137.675	1	1415.505	-53.48724	-3.764882E-005	-1.59974	8
	20	56	9.91015	1060.072	-1243.424	1	1633.97	-49.55099	-3.769277E-005	-1.599739	8
	21	60	7.971939	1301.938	-1316.001	1	1851.189	-45.30778	-3.780047E-005	-1.599741	8
	22	64	6.351626	1573.328	-1349.279	1	2072.658	-40.61623	-3.791039E-005	-1.599739	8
	23	68	4.970838	1870.672	-1330.763	1	2295.723	-35.42738	-3.807285E-005	-1.599739	8
	24	73	3.942389	2134.078	-1260.907	1	2478.745	-30.57645	-3.826597E-005	-1.599739	8
	25	78	3.16723	2348.949	-1153.795	1	2617.022	-26.16009	-3.844577E-005	-1.599739	8
	26	85	2.485419	2529.629	-1005.415	1	2722.11	-21.67562	-3.883445E-005	-1.599741	8
	27	93	1.971194	2638.549	-846.2715	1	2770.941	-17.78279	-3.937185E-005	-1.599744	8
	28	102	1.605308	2679.548	-703.4446	1	2770.345	-14.70957	-3.987826E-005	-1.599741	8
	29	113	1.260081	2698.016	-560.677	1	2755.657	-11.7396	-4.075191E-005	-1.599744	8
	30	126	1.001603	2683.866	-447.2043	1	2720.869	-9.460106	-4.172623E-005	-1.59974	8
