EXPLAIN
TAG	EISPOT
TITLE	LABEL	Potentiostatic EIS	Test &Identifier
DATE	LABEL	4/30/2026	Date
TIME	LABEL	11:57:48	Time
NOTES	NOTES	1	&Notes...
	
PSTAT	PSTAT	Rhea	Potentiostat
VDC	POTEN	-1.20000E+000	F	DC &Voltage (V)
FREQINIT	QUANT	1.00000E+003	Initial Fre&q. (Hz)
FREQFINAL	QUANT	1.00000E+000	Final Fre&q. (Hz)
PTSPERDEC	QUANT	1.00000E+001	Points/&decade
VAC	QUANT	1.00000E+001	AC &Voltage (mV rms)
AREA	QUANT	2.80000E-001	&Area (cm^2)
CONDIT	TWOPARAM	F	0.00000E+000	0.00000E+000	Conditionin&g	Time(s)	E(V)
DELAY	TWOPARAM	T	1.00000E+001	0.00000E+000	Init. De&lay	Time(s)	Stab.(mV/s)
SPEED	SELECTOR	2	&Optimize for:
ZGUESS	QUANT	2.86800E+005	E&stimated Z (ohms)
OCVCURVE	TABLE	40
	Pt	T	Vf	Vm	Ach	Over	Temp
	#	s	V vs. Ref.	V	V	bits	deg C
	0	0.25	1.60360E-001	1.60360E-001	0.00000E+000	...........	1409.05
	1	0.5	1.60412E-001	1.63063E-001	0.00000E+000	...........	1409.05
	2	0.75	1.60727E-001	1.65526E-001	0.00000E+000	...........	1409.05
	3	1	1.61610E-001	1.67766E-001	0.00000E+000	...........	1409.05
	4	1.25	1.63164E-001	1.69767E-001	0.00000E+000	...........	1409.05
	5	1.5	1.65180E-001	1.71600E-001	0.00000E+000	...........	1409.31
	6	1.75	1.67337E-001	1.73246E-001	0.00000E+000	...........	1409.31
	7	2	1.69409E-001	1.74755E-001	0.00000E+000	...........	1409.31
	8	2.25	1.71301E-001	1.76111E-001	0.00000E+000	...........	1409.31
	9	2.5	1.73002E-001	1.77333E-001	0.00000E+000	...........	1409.31
	10	2.75	1.74532E-001	1.78437E-001	0.00000E+000	...........	1409.31
	11	3	1.75909E-001	1.79435E-001	0.00000E+000	...........	1409.31
	12	3.25	1.77152E-001	1.80328E-001	0.00000E+000	...........	1409.31
	13	3.5	1.78273E-001	1.81132E-001	0.00000E+000	...........	1409.31
	14	3.75	1.79283E-001	1.81854E-001	0.00000E+000	...........	1409.31
	15	4	1.80192E-001	1.82488E-001	0.00000E+000	...........	1409.31
	16	4.25	1.81006E-001	1.82960E-001	0.00000E+000	...........	1409.31
	17	4.5	1.81724E-001	1.83337E-001	0.00000E+000	...........	1409.31
	18	4.75	1.82339E-001	1.83730E-001	0.00000E+000	...........	1409.31
	19	5	1.82856E-001	1.84056E-001	0.00000E+000	...........	1409.31
	20	5.25	1.83292E-001	1.84325E-001	0.00000E+000	...........	1409.31
	21	5.5	1.83668E-001	1.84553E-001	0.00000E+000	...........	1409.40
	22	5.75	1.83993E-001	1.84732E-001	0.00000E+000	...........	1409.40
	23	6	1.84269E-001	1.84831E-001	0.00000E+000	...........	1409.40
	24	6.25	1.84496E-001	1.84901E-001	0.00000E+000	...........	1409.40
	25	6.5	1.84670E-001	1.84937E-001	0.00000E+000	...........	1409.40
	26	6.75	1.84793E-001	1.84930E-001	0.00000E+000	...........	1409.40
	27	7	1.84870E-001	1.84882E-001	0.00000E+000	...........	1409.40
	28	7.25	1.84904E-001	1.84752E-001	0.00000E+000	...........	1409.40
	29	7.5	1.84896E-001	1.84656E-001	0.00000E+000	...........	1409.40
	30	7.75	1.84846E-001	1.84527E-001	0.00000E+000	...........	1409.40
	31	8	1.84761E-001	1.84368E-001	0.00000E+000	...........	1409.40
	32	8.25	1.84650E-001	1.84187E-001	0.00000E+000	...........	1409.40
	33	8.5	1.84518E-001	1.83985E-001	0.00000E+000	...........	1409.40
	34	8.75	1.84363E-001	1.83788E-001	0.00000E+000	...........	1409.40
	35	9	1.84188E-001	1.83542E-001	0.00000E+000	...........	1409.40
	36	9.25	1.83995E-001	1.83345E-001	0.00000E+000	...........	1409.40
	37	9.5	1.83788E-001	1.83126E-001	0.00000E+000	...........	1409.40
	38	9.75	1.83575E-001	1.82905E-001	0.00000E+000	...........	1409.40
	39	10	1.83358E-001	1.82675E-001	0.00000E+000	...........	1409.40
EOC	QUANT	0.1833579	Open Circuit (V)
PSTATMODEL	IQUANT	64	Pstat Model
PSTATSECTION	LABEL	IFC1010-22099	Pstat Section
PSTATSERIALNO	LABEL	22099	Pstat Serial Number
CTRLMODE	IQUANT	1	Control Mode
ELECTROMETER	IQUANT	0	RE=0 or CS=1
IESTAB	IQUANT	0	I/E Stability
CASPEED	IQUANT	3	Control Amp Speed
CONVENTION	IQUANT	1	Current Convention
ICHRANGE	IQUANT	2	Ich Range
ICHRANGEMODE	TOGGLE	F	Ich Auto Range
ICHOFFSETENABLE	TOGGLE	T	Ich Offset Enable
ICHOFFSET	QUANT	0	Ich Offset (V)
ICHFILTER	IQUANT	4	Ich Filter
VCHRANGE	IQUANT	2	Vch Range
VCHRANGEMODE	TOGGLE	F	Vch Auto Range
VCHOFFSETENABLE	TOGGLE	T	Vch Offset Enable
VCHOFFSET	QUANT	0	Vch Offset (V)
VCHFILTER	IQUANT	4	Vch Filter
IERANGELOWERLIMIT	IQUANT	4	I/E Range Lower Limit
IERANGEMODE	TOGGLE	F	I/E AutoRange
IERANGE	IQUANT	7	I/E Range
ACHSELECT	IQUANT	0	Ach Select
ACHRANGE	IQUANT	2	Ach Range
ACHOFFSETENABLE	TOGGLE	F	Ach Offset Enable
ACHOFFSET	QUANT	0	Ach Offset (V)
ACHFILTER	IQUANT	1	Ach Filter
SENSECABLEID	IQUANT	14	Sense Cable ID
PWRCABLEID	IQUANT	14	Power Cable ID
DCCALDATE	LABEL	11/25/2025	DC Calibration Date
ACCALDATE	LABEL	9/8/2018	AC Calibration Date
FRAMEWORKVERSION	QUANT	7.07	Framework Version
INSTRUMENTVERSION	LABEL	4.34	Instrument Version
ZCURVE	TABLE
	Pt	Time	Freq	Zreal	Zimag	Zsig	Zmod	Zphz	Idc	Vdc	IERange
	#	s	Hz	ohm	ohm	V	ohm	°	A	V	#
	0	6	1004.464	283.9278	-71.40231	1	292.7683	-14.11605	-2.310753E-005	-1.199834	8
	1	9	800.3049	277.7257	-84.01986	1	290.1567	-16.83205	-2.092897E-005	-1.199837	8
	2	12	631.0096	272.9957	-100.3209	1	290.8452	-20.17746	-2.031441E-005	-1.19984	8
	3	14	498.6702	273.345	-119.8336	1	298.4587	-23.67249	-1.999579E-005	-1.199834	8
	4	16	397.2458	285.0026	-142.7365	1	318.7478	-26.60287	-1.975953E-005	-1.199838	8
	5	19	319.6023	280.302	-168.9691	1	327.2916	-31.08204	-1.963703E-005	-1.199838	8
	6	21	251.1161	276.1244	-204.303	1	343.4886	-36.49755	-1.959545E-005	-1.199838	8
	7	24	200.8929	275.2462	-244.1975	1	367.9578	-41.57933	-1.953103E-005	-1.19984	8
	8	26	158.0056	274.4236	-296.5658	1	404.0539	-47.22074	-1.953694E-005	-1.199841	8
	9	28	125.558	273.316	-358.3192	1	450.6598	-52.66461	-1.953544E-005	-1.199841	8
	10	31	99.734	275.5027	-434.414	1	514.4095	-57.61738	-1.955863E-005	-1.199843	8
	11	33	79.44915	281.613	-528.4946	1	598.8425	-61.94868	-1.958239E-005	-1.199826	8
	12	36	63.34459	291.1466	-644.468	1	707.1813	-65.68832	-1.966553E-005	-1.19983	8
	13	38	49.86702	310.2291	-798.2653	1	856.4283	-68.76243	-1.971779E-005	-1.199827	8
	14	41	38.10976	346.0245	-1021.564	1	1078.576	-71.28772	-1.976465E-005	-1.199829	8
	15	43	31.25	383.7025	-1225.605	1	1284.265	-72.61613	-1.982166E-005	-1.199829	8
	16	46	24.93351	447.9221	-1507.076	1	1572.232	-73.44738	-1.989713E-005	-1.19983	8
	17	48	19.94681	541.42	-1847.756	1	1925.445	-73.66863	-1.991174E-005	-1.199833	8
	18	50	15.57309	697.0733	-2308.572	1	2411.517	-73.19831	-1.994122E-005	-1.199834	8
	19	53	12.40079	906.1721	-2819.152	1	2961.21	-72.18082	-1.997835E-005	-1.199833	8
	20	56	9.91015	1200.861	-3409.227	1	3614.539	-70.59578	-1.999389E-005	-1.199834	8
	21	59	7.971939	1596.022	-4057.382	1	4360.004	-68.52719	-1.999748E-005	-1.199839	8
	22	63	6.351626	2167.88	-4813.148	1	5278.835	-65.75282	-1.997937E-005	-1.199841	8
	23	66	4.970838	2998.542	-5667.852	1	6412.16	-62.1192	-1.999479E-005	-1.199843	8
	24	71	3.942389	4017.406	-6472.56	1	7617.978	-58.17284	-2.000147E-005	-1.199844	8
	25	77	3.16723	5180.502	-7146.895	1	8826.987	-54.06313	-2.002669E-005	-1.199846	8
	26	83	2.485419	6687.078	-7735.937	1	10225.54	-49.1593	-2.008252E-005	-1.199842	8
	27	89	1.971194	8228.187	-8070.464	1	11525.43	-44.44556	-2.006128E-005	-1.199844	8
	28	94	1.605308	9610.94	-8232.51	1	12654.82	-40.5826	-2.005327E-005	-1.199846	8
	29	104	1.260081	11200.06	-8219.399	1	13892.44	-36.27386	-2.001904E-005	-1.199853	8
	30	117	1.001603	12593.48	-8019.305	1	14930	-32.48827	-2.012485E-005	-1.199855	8
