EXPLAIN
TAG	EISPOT
TITLE	LABEL	Potentiostatic EIS	Test &Identifier
DATE	LABEL	4/30/2026	Date
TIME	LABEL	12:01:09	Time
NOTES	NOTES	1	&Notes...
	
PSTAT	PSTAT	Titan	Potentiostat
VDC	POTEN	-1.40000E+000	F	DC &Voltage (V)
FREQINIT	QUANT	1.00000E+003	Initial Fre&q. (Hz)
FREQFINAL	QUANT	1.00000E+000	Final Fre&q. (Hz)
PTSPERDEC	QUANT	1.00000E+001	Points/&decade
VAC	QUANT	1.00000E+001	AC &Voltage (mV rms)
AREA	QUANT	2.80000E-001	&Area (cm^2)
CONDIT	TWOPARAM	F	0.00000E+000	0.00000E+000	Conditionin&g	Time(s)	E(V)
DELAY	TWOPARAM	T	1.00000E+001	0.00000E+000	Init. De&lay	Time(s)	Stab.(mV/s)
SPEED	SELECTOR	2	&Optimize for:
ZGUESS	QUANT	2.86800E+005	E&stimated Z (ohms)
OCVCURVE	TABLE	40
	Pt	T	Vf	Vm	Ach	Over	Temp
	#	s	V vs. Ref.	V	V	bits	deg C
	0	0.25	-3.04949E-001	-3.04949E-001	0.00000E+000	...........	1406.59
	1	0.5	-3.04937E-001	-3.04317E-001	0.00000E+000	...........	1406.42
	2	0.75	-3.04863E-001	-3.03694E-001	0.00000E+000	...........	1406.42
	3	1	-3.04649E-001	-3.03066E-001	0.00000E+000	...........	1406.42
	4	1.25	-3.04262E-001	-3.02430E-001	0.00000E+000	...........	1406.42
	5	1.5	-3.03734E-001	-3.01814E-001	0.00000E+000	...........	1406.42
	6	1.75	-3.03130E-001	-3.01187E-001	0.00000E+000	...........	1406.42
	7	2	-3.02500E-001	-3.00574E-001	0.00000E+000	...........	1406.42
	8	2.25	-3.01868E-001	-2.99951E-001	0.00000E+000	...........	1406.42
	9	2.5	-3.01242E-001	-2.99345E-001	0.00000E+000	...........	1406.50
	10	2.75	-3.00621E-001	-2.98724E-001	0.00000E+000	...........	1406.50
	11	3	-3.00004E-001	-2.98128E-001	0.00000E+000	...........	1406.50
	12	3.25	-2.99391E-001	-2.97525E-001	0.00000E+000	...........	1406.50
	13	3.5	-2.98781E-001	-2.96934E-001	0.00000E+000	...........	1406.42
	14	3.75	-2.98177E-001	-2.96359E-001	0.00000E+000	...........	1406.42
	15	4	-2.97579E-001	-2.95761E-001	0.00000E+000	...........	1406.42
	16	4.25	-2.96986E-001	-2.95174E-001	0.00000E+000	...........	1406.42
	17	4.5	-2.96397E-001	-2.94598E-001	0.00000E+000	...........	1406.50
	18	4.75	-2.95810E-001	-2.94019E-001	0.00000E+000	...........	1406.50
	19	5	-2.95225E-001	-2.93412E-001	0.00000E+000	...........	1406.50
	20	5.25	-2.94640E-001	-2.92848E-001	0.00000E+000	...........	1406.50
	21	5.5	-2.94056E-001	-2.92280E-001	0.00000E+000	...........	1406.50
	22	5.75	-2.93474E-001	-2.91721E-001	0.00000E+000	...........	1406.50
	23	6	-2.92898E-001	-2.91167E-001	0.00000E+000	...........	1406.50
	24	6.25	-2.92330E-001	-2.90626E-001	0.00000E+000	...........	1406.50
	25	6.5	-2.91770E-001	-2.90095E-001	0.00000E+000	...........	1406.50
	26	6.75	-2.91218E-001	-2.89592E-001	0.00000E+000	...........	1406.50
	27	7	-2.90678E-001	-2.89085E-001	0.00000E+000	...........	1406.50
	28	7.25	-2.90151E-001	-2.88595E-001	0.00000E+000	...........	1406.50
	29	7.5	-2.89636E-001	-2.88116E-001	0.00000E+000	...........	1406.50
	30	7.75	-2.89133E-001	-2.87640E-001	0.00000E+000	...........	1406.50
	31	8	-2.88641E-001	-2.87166E-001	0.00000E+000	...........	1406.50
	32	8.25	-2.88157E-001	-2.86707E-001	0.00000E+000	...........	1406.50
	33	8.5	-2.87680E-001	-2.86244E-001	0.00000E+000	...........	1406.50
	34	8.75	-2.87210E-001	-2.85789E-001	0.00000E+000	...........	1406.50
	35	9	-2.86744E-001	-2.85326E-001	0.00000E+000	...........	1406.50
	36	9.25	-2.86282E-001	-2.84873E-001	0.00000E+000	...........	1406.50
	37	9.5	-2.85823E-001	-2.84423E-001	0.00000E+000	...........	1406.50
	38	9.75	-2.85365E-001	-2.83952E-001	0.00000E+000	...........	1406.50
	39	10	-2.84909E-001	-2.83502E-001	0.00000E+000	...........	1406.50
EOC	QUANT	-0.2849086	Open Circuit (V)
PSTATMODEL	IQUANT	64	Pstat Model
PSTATSECTION	LABEL	IFC1010-22093	Pstat Section
PSTATSERIALNO	LABEL	22093	Pstat Serial Number
CTRLMODE	IQUANT	1	Control Mode
ELECTROMETER	IQUANT	0	RE=0 or CS=1
IESTAB	IQUANT	0	I/E Stability
CASPEED	IQUANT	3	Control Amp Speed
CONVENTION	IQUANT	1	Current Convention
ICHRANGE	IQUANT	2	Ich Range
ICHRANGEMODE	TOGGLE	F	Ich Auto Range
ICHOFFSETENABLE	TOGGLE	T	Ich Offset Enable
ICHOFFSET	QUANT	0	Ich Offset (V)
ICHFILTER	IQUANT	4	Ich Filter
VCHRANGE	IQUANT	2	Vch Range
VCHRANGEMODE	TOGGLE	F	Vch Auto Range
VCHOFFSETENABLE	TOGGLE	T	Vch Offset Enable
VCHOFFSET	QUANT	0	Vch Offset (V)
VCHFILTER	IQUANT	4	Vch Filter
IERANGELOWERLIMIT	IQUANT	4	I/E Range Lower Limit
IERANGEMODE	TOGGLE	F	I/E AutoRange
IERANGE	IQUANT	7	I/E Range
ACHSELECT	IQUANT	0	Ach Select
ACHRANGE	IQUANT	2	Ach Range
ACHOFFSETENABLE	TOGGLE	F	Ach Offset Enable
ACHOFFSET	QUANT	0	Ach Offset (V)
ACHFILTER	IQUANT	1	Ach Filter
SENSECABLEID	IQUANT	14	Sense Cable ID
PWRCABLEID	IQUANT	14	Power Cable ID
DCCALDATE	LABEL	11/25/2025	DC Calibration Date
ACCALDATE	LABEL	8/31/2018	AC Calibration Date
FRAMEWORKVERSION	QUANT	7.07	Framework Version
INSTRUMENTVERSION	LABEL	4.34	Instrument Version
ZCURVE	TABLE
	Pt	Time	Freq	Zreal	Zimag	Zsig	Zmod	Zphz	Idc	Vdc	IERange
	#	s	Hz	ohm	ohm	V	ohm	°	A	V	#
	0	7	1004.464	166.673	-34.01617	1	170.1088	-11.53504	-3.155562E-005	-1.39976	9
	1	9	800.3049	167.1169	-41.45596	1	172.1821	-13.93188	-2.877418E-005	-1.399758	9
	2	12	631.0096	168.2459	-51.13465	1	175.8449	-16.9055	-2.729517E-005	-1.399763	9
	3	14	498.6702	170.1777	-63.15232	1	181.5176	-20.35971	-2.629674E-005	-1.399757	9
	4	16	397.2458	171.9689	-77.7596	1	188.7323	-24.33117	-2.5483E-005	-1.399757	9
	5	19	319.6023	173.8119	-95.0806	1	198.1184	-28.68005	-2.4785E-005	-1.399756	9
	6	21	251.1161	176.9969	-119.0952	1	213.3344	-33.93526	-2.412156E-005	-1.39976	9
	7	23	200.8929	180.1116	-146.9111	1	232.4286	-39.20299	-2.351523E-005	-1.399758	9
	8	26	158.0056	184.7044	-184.2756	1	260.9085	-44.93341	-2.271011E-005	-1.399745	8
	9	28	125.558	191.0566	-228.9082	1	298.1637	-50.15017	-2.231928E-005	-1.399743	8
	10	30	99.734	199.176	-284.4915	1	347.2845	-55.00366	-2.197341E-005	-1.399747	8
	11	33	79.44915	211.0448	-352.1054	1	410.5096	-59.06239	-2.16902E-005	-1.399741	8
	12	35	63.34459	227.9652	-434.9525	1	491.0721	-62.34029	-2.139251E-005	-1.399741	8
	13	38	49.86702	251.7739	-542.9747	1	598.5079	-65.12315	-2.116411E-005	-1.39974	8
	14	40	38.10976	292.3581	-694.4016	1	753.4367	-67.16785	-2.095521E-005	-1.399741	8
	15	42	31.25	333.8176	-830.1743	1	894.7757	-68.09467	-2.08175E-005	-1.399745	8
	16	45	24.93351	398.517	-1014.149	1	1089.639	-68.5473	-2.071555E-005	-1.399744	8
	17	47	19.94681	487.6885	-1230.142	1	1323.288	-68.37421	-2.057606E-005	-1.399743	8
	18	50	15.57309	626.3468	-1513.882	1	1638.338	-67.52338	-2.04691E-005	-1.399745	8
	19	53	12.40079	802.8796	-1817.095	1	1986.568	-66.16187	-2.038761E-005	-1.399743	8
	20	56	9.91015	1039.118	-2154.472	1	2391.969	-64.25165	-2.026747E-005	-1.399743	8
	21	60	7.971939	1342.443	-2510.28	1	2846.692	-61.86311	-2.024257E-005	-1.399742	8
	22	63	6.351626	1751.865	-2895.637	1	3384.338	-58.826	-2.018383E-005	-1.399742	8
	23	68	4.970838	2312.825	-3294.466	1	4025.253	-54.92987	-2.017614E-005	-1.399743	8
	24	73	3.942389	2948.032	-3621.263	1	4669.522	-50.85133	-2.023721E-005	-1.39974	8
	25	78	3.16723	3616.972	-3854.963	1	5286.136	-46.82433	-2.028434E-005	-1.399741	8
	26	85	2.485419	4401.259	-4008.93	1	5953.369	-42.32913	-2.035273E-005	-1.399744	8
	27	93	1.971194	5131.833	-4063.757	1	6545.978	-38.37473	-2.045421E-005	-1.399744	8
	28	102	1.605308	5751.098	-4088.856	1	7056.478	-35.41167	-2.048965E-005	-1.399741	8
	29	112	1.260081	6470.055	-4137.25	1	7679.743	-32.59672	-2.038145E-005	-1.39974	8
	30	126	1.001603	7093.704	-4194.395	1	8240.97	-30.59515	-2.022783E-005	-1.399742	8
