EXPLAIN
TAG	EISPOT
TITLE	LABEL	Potentiostatic EIS	Test &Identifier
DATE	LABEL	4/30/2026	Date
TIME	LABEL	15:08:44	Time
NOTES	NOTES	1	&Notes...
	
PSTAT	PSTAT	Rhea	Potentiostat
VDC	POTEN	-1.40000E+000	F	DC &Voltage (V)
FREQINIT	QUANT	1.00000E+003	Initial Fre&q. (Hz)
FREQFINAL	QUANT	1.00000E+000	Final Fre&q. (Hz)
PTSPERDEC	QUANT	1.00000E+001	Points/&decade
VAC	QUANT	1.00000E+001	AC &Voltage (mV rms)
AREA	QUANT	2.80000E-001	&Area (cm^2)
CONDIT	TWOPARAM	F	0.00000E+000	0.00000E+000	Conditionin&g	Time(s)	E(V)
DELAY	TWOPARAM	T	1.00000E+001	0.00000E+000	Init. De&lay	Time(s)	Stab.(mV/s)
SPEED	SELECTOR	2	&Optimize for:
ZGUESS	QUANT	2.86800E+005	E&stimated Z (ohms)
OCVCURVE	TABLE	40
	Pt	T	Vf	Vm	Ach	Over	Temp
	#	s	V vs. Ref.	V	V	bits	deg C
	0	0.25	-1.74788E-001	-1.74788E-001	0.00000E+000	...........	1415.81
	1	0.5	-1.74762E-001	-1.73406E-001	0.00000E+000	...........	1415.81
	2	0.75	-1.74598E-001	-1.72026E-001	0.00000E+000	...........	1415.81
	3	1	-1.74130E-001	-1.70638E-001	0.00000E+000	...........	1415.81
	4	1.25	-1.73278E-001	-1.69293E-001	0.00000E+000	...........	1415.99
	5	1.5	-1.72121E-001	-1.67959E-001	0.00000E+000	...........	1415.99
	6	1.75	-1.70805E-001	-1.66645E-001	0.00000E+000	...........	1415.99
	7	2	-1.69442E-001	-1.65325E-001	0.00000E+000	...........	1415.99
	8	2.25	-1.68088E-001	-1.64025E-001	0.00000E+000	...........	1415.99
	9	2.5	-1.66754E-001	-1.62759E-001	0.00000E+000	...........	1415.99
	10	2.75	-1.65440E-001	-1.61485E-001	0.00000E+000	...........	1415.99
	11	3	-1.64143E-001	-1.60238E-001	0.00000E+000	...........	1415.99
	12	3.25	-1.62863E-001	-1.59016E-001	0.00000E+000	...........	1415.99
	13	3.5	-1.61598E-001	-1.57797E-001	0.00000E+000	...........	1415.99
	14	3.75	-1.60350E-001	-1.56563E-001	0.00000E+000	...........	1415.99
	15	4	-1.59115E-001	-1.55365E-001	0.00000E+000	...........	1415.99
	16	4.25	-1.57890E-001	-1.54184E-001	0.00000E+000	...........	1415.99
	17	4.5	-1.56675E-001	-1.53012E-001	0.00000E+000	...........	1415.99
	18	4.75	-1.55472E-001	-1.51849E-001	0.00000E+000	...........	1415.99
	19	5	-1.54285E-001	-1.50712E-001	0.00000E+000	...........	1415.99
	20	5.25	-1.53112E-001	-1.49589E-001	0.00000E+000	...........	1415.99
	21	5.5	-1.51954E-001	-1.48473E-001	0.00000E+000	...........	1415.99
	22	5.75	-1.50813E-001	-1.47412E-001	0.00000E+000	...........	1415.99
	23	6	-1.49689E-001	-1.46324E-001	0.00000E+000	...........	1415.99
	24	6.25	-1.48583E-001	-1.45260E-001	0.00000E+000	...........	1415.99
	25	6.5	-1.47493E-001	-1.44204E-001	0.00000E+000	...........	1415.99
	26	6.75	-1.46416E-001	-1.43162E-001	0.00000E+000	...........	1415.99
	27	7	-1.45350E-001	-1.42139E-001	0.00000E+000	...........	1415.99
	28	7.25	-1.44296E-001	-1.41132E-001	0.00000E+000	...........	1415.99
	29	7.5	-1.43256E-001	-1.40121E-001	0.00000E+000	...........	1415.99
	30	7.75	-1.42228E-001	-1.39125E-001	0.00000E+000	...........	1415.99
	31	8	-1.41213E-001	-1.38167E-001	0.00000E+000	...........	1415.99
	32	8.25	-1.40210E-001	-1.37204E-001	0.00000E+000	...........	1415.99
	33	8.5	-1.39221E-001	-1.36232E-001	0.00000E+000	...........	1415.99
	34	8.75	-1.38244E-001	-1.35258E-001	0.00000E+000	...........	1415.99
	35	9	-1.37274E-001	-1.34306E-001	0.00000E+000	...........	1415.99
	36	9.25	-1.36307E-001	-1.33386E-001	0.00000E+000	...........	1415.99
	37	9.5	-1.35348E-001	-1.32484E-001	0.00000E+000	...........	1415.99
	38	9.75	-1.34402E-001	-1.31586E-001	0.00000E+000	...........	1415.99
	39	10	-1.33473E-001	-1.30691E-001	0.00000E+000	...........	1415.99
EOC	QUANT	-0.1334727	Open Circuit (V)
PSTATMODEL	IQUANT	64	Pstat Model
PSTATSECTION	LABEL	IFC1010-22099	Pstat Section
PSTATSERIALNO	LABEL	22099	Pstat Serial Number
CTRLMODE	IQUANT	1	Control Mode
ELECTROMETER	IQUANT	0	RE=0 or CS=1
IESTAB	IQUANT	0	I/E Stability
CASPEED	IQUANT	3	Control Amp Speed
CONVENTION	IQUANT	1	Current Convention
ICHRANGE	IQUANT	2	Ich Range
ICHRANGEMODE	TOGGLE	F	Ich Auto Range
ICHOFFSETENABLE	TOGGLE	T	Ich Offset Enable
ICHOFFSET	QUANT	0	Ich Offset (V)
ICHFILTER	IQUANT	4	Ich Filter
VCHRANGE	IQUANT	2	Vch Range
VCHRANGEMODE	TOGGLE	F	Vch Auto Range
VCHOFFSETENABLE	TOGGLE	T	Vch Offset Enable
VCHOFFSET	QUANT	0	Vch Offset (V)
VCHFILTER	IQUANT	4	Vch Filter
IERANGELOWERLIMIT	IQUANT	4	I/E Range Lower Limit
IERANGEMODE	TOGGLE	F	I/E AutoRange
IERANGE	IQUANT	7	I/E Range
ACHSELECT	IQUANT	0	Ach Select
ACHRANGE	IQUANT	2	Ach Range
ACHOFFSETENABLE	TOGGLE	F	Ach Offset Enable
ACHOFFSET	QUANT	0	Ach Offset (V)
ACHFILTER	IQUANT	1	Ach Filter
SENSECABLEID	IQUANT	14	Sense Cable ID
PWRCABLEID	IQUANT	14	Power Cable ID
DCCALDATE	LABEL	11/25/2025	DC Calibration Date
ACCALDATE	LABEL	9/8/2018	AC Calibration Date
FRAMEWORKVERSION	QUANT	7.07	Framework Version
INSTRUMENTVERSION	LABEL	4.34	Instrument Version
ZCURVE	TABLE
	Pt	Time	Freq	Zreal	Zimag	Zsig	Zmod	Zphz	Idc	Vdc	IERange
	#	s	Hz	ohm	ohm	V	ohm	°	A	V	#
	0	7	1004.464	92.93806	-36.60809	1	99.8881	-21.49937	-4.088043E-005	-1.400045	9
	1	9	800.3049	93.85108	-44.77882	1	103.9864	-25.50704	-3.921316E-005	-1.400043	9
	2	11	631.0096	95.0507	-55.44505	1	110.0399	-30.25591	-3.812594E-005	-1.400043	9
	3	14	498.6702	96.5068	-68.72533	1	118.4767	-35.45578	-3.729666E-005	-1.40004	9
	4	16	397.2458	98.2865	-84.7729	1	129.7948	-40.77803	-3.6817E-005	-1.400042	9
	5	19	319.6023	100.5176	-103.7947	1	144.4892	-45.91893	-3.617697E-005	-1.400044	9
	6	21	251.1161	103.9676	-130.0489	1	166.4991	-51.35941	-3.566065E-005	-1.400042	9
	7	23	200.8929	108.4316	-160.3107	1	193.538	-55.9262	-3.540109E-005	-1.400039	9
	8	26	158.0056	115.1232	-200.707	1	231.3799	-60.16192	-3.518529E-005	-1.40004	9
	9	28	125.558	124.1564	-248.7024	1	277.9707	-63.47086	-3.495946E-005	-1.400039	9
	10	31	99.734	137.0244	-308.1022	1	337.1982	-66.02353	-3.45206E-005	-1.40002	8
	11	33	79.44915	154.751	-379.3497	1	409.7	-67.8076	-3.455736E-005	-1.400012	8
	12	35	63.34459	179.5745	-465.7618	1	499.1804	-68.91585	-3.4368E-005	-1.400014	8
	13	38	49.86702	217.5903	-577.3951	1	617.0337	-69.35117	-3.42184E-005	-1.400013	8
	14	40	38.10976	278.7858	-729.3551	1	780.8203	-69.08134	-3.428079E-005	-1.400012	8
	15	43	31.25	341.9199	-862.5886	1	927.8838	-68.37721	-3.415182E-005	-1.400013	8
	16	45	24.93351	439.9848	-1036.338	1	1125.87	-66.99599	-3.418385E-005	-1.400014	8
	17	48	19.94681	570.7429	-1231.362	1	1357.203	-65.13203	-3.398659E-005	-1.400012	8
	18	50	15.57309	768.5394	-1468.373	1	1657.339	-62.37265	-3.392053E-005	-1.400013	8
	19	53	12.40079	1008.147	-1698.899	1	1975.505	-59.31461	-3.372219E-005	-1.400012	8
	20	57	9.91015	1306.51	-1917.496	1	2320.293	-55.73093	-3.374517E-005	-1.400015	8
	21	60	7.971939	1652.736	-2106.863	1	2677.761	-51.88747	-3.36957E-005	-1.400015	8
	22	64	6.351626	2063.021	-2255.987	1	3057.047	-47.55818	-3.373176E-005	-1.400015	8
	23	68	4.970838	2534.733	-2356.088	1	3460.639	-42.90811	-3.373615E-005	-1.400014	8
	24	73	3.942389	2983.117	-2397.022	1	3826.84	-38.78289	-3.375962E-005	-1.400011	8
	25	79	3.16723	3390.064	-2393.925	1	4150.109	-35.22818	-3.373269E-005	-1.400013	8
	26	85	2.485419	3820.716	-2363.528	1	4492.676	-31.7413	-3.372929E-005	-1.400012	8
	27	93	1.971194	4194.416	-2352.188	1	4808.941	-29.28329	-3.382672E-005	-1.400012	8
	28	102	1.605308	4517.997	-2311.978	1	5075.188	-27.10002	-3.406235E-005	-1.400012	8
	29	113	1.260081	4895.414	-2319.256	1	5417.012	-25.34977	-3.407288E-005	-1.400013	8
	30	126	1.001603	5213.478	-2289.127	1	5693.896	-23.70526	-3.36867E-005	-1.400015	8
