EXPLAIN
TAG	EISPOT
TITLE	LABEL	Potentiostatic EIS	Test &Identifier
DATE	LABEL	4/30/2026	Date
TIME	LABEL	14:29:14	Time
NOTES	NOTES	1	&Notes...
	
PSTAT	PSTAT	Rhea	Potentiostat
VDC	POTEN	-1.40000E+000	F	DC &Voltage (V)
FREQINIT	QUANT	1.00000E+003	Initial Fre&q. (Hz)
FREQFINAL	QUANT	1.00000E+000	Final Fre&q. (Hz)
PTSPERDEC	QUANT	1.00000E+001	Points/&decade
VAC	QUANT	1.00000E+001	AC &Voltage (mV rms)
AREA	QUANT	2.80000E-001	&Area (cm^2)
CONDIT	TWOPARAM	F	0.00000E+000	0.00000E+000	Conditionin&g	Time(s)	E(V)
DELAY	TWOPARAM	T	1.00000E+001	0.00000E+000	Init. De&lay	Time(s)	Stab.(mV/s)
SPEED	SELECTOR	2	&Optimize for:
ZGUESS	QUANT	2.86800E+005	E&stimated Z (ohms)
OCVCURVE	TABLE	40
	Pt	T	Vf	Vm	Ach	Over	Temp
	#	s	V vs. Ref.	V	V	bits	deg C
	0	0.25	-2.37759E-001	-2.37759E-001	0.00000E+000	...........	1415.37
	1	0.5	-2.37747E-001	-2.37117E-001	0.00000E+000	...........	1415.37
	2	0.75	-2.37671E-001	-2.36472E-001	0.00000E+000	...........	1415.37
	3	1	-2.37453E-001	-2.35833E-001	0.00000E+000	...........	1415.99
	4	1.25	-2.37057E-001	-2.35202E-001	0.00000E+000	...........	1415.99
	5	1.5	-2.36519E-001	-2.34588E-001	0.00000E+000	...........	1415.99
	6	1.75	-2.35907E-001	-2.33975E-001	0.00000E+000	...........	1415.99
	7	2	-2.35275E-001	-2.33371E-001	0.00000E+000	...........	1415.99
	8	2.25	-2.34647E-001	-2.32778E-001	0.00000E+000	...........	1415.99
	9	2.5	-2.34030E-001	-2.32182E-001	0.00000E+000	...........	1415.99
	10	2.75	-2.33423E-001	-2.31580E-001	0.00000E+000	...........	1415.99
	11	3	-2.32823E-001	-2.31001E-001	0.00000E+000	...........	1415.55
	12	3.25	-2.32228E-001	-2.30432E-001	0.00000E+000	...........	1415.55
	13	3.5	-2.31637E-001	-2.29849E-001	0.00000E+000	...........	1415.55
	14	3.75	-2.31052E-001	-2.29262E-001	0.00000E+000	...........	1415.55
	15	4	-2.30472E-001	-2.28716E-001	0.00000E+000	...........	1415.72
	16	4.25	-2.29895E-001	-2.28161E-001	0.00000E+000	...........	1415.72
	17	4.5	-2.29324E-001	-2.27600E-001	0.00000E+000	...........	1415.72
	18	4.75	-2.28760E-001	-2.27052E-001	0.00000E+000	...........	1415.72
	19	5	-2.28202E-001	-2.26507E-001	0.00000E+000	...........	1415.99
	20	5.25	-2.27648E-001	-2.25971E-001	0.00000E+000	...........	1415.99
	21	5.5	-2.27099E-001	-2.25444E-001	0.00000E+000	...........	1415.99
	22	5.75	-2.26556E-001	-2.24911E-001	0.00000E+000	...........	1415.99
	23	6	-2.26018E-001	-2.24379E-001	0.00000E+000	...........	1415.46
	24	6.25	-2.25484E-001	-2.23853E-001	0.00000E+000	...........	1415.46
	25	6.5	-2.24953E-001	-2.23335E-001	0.00000E+000	...........	1415.46
	26	6.75	-2.24424E-001	-2.22829E-001	0.00000E+000	...........	1415.46
	27	7	-2.23900E-001	-2.22325E-001	0.00000E+000	...........	1415.63
	28	7.25	-2.23383E-001	-2.21831E-001	0.00000E+000	...........	1415.63
	29	7.5	-2.22872E-001	-2.21323E-001	0.00000E+000	...........	1415.63
	30	7.75	-2.22368E-001	-2.20828E-001	0.00000E+000	...........	1415.63
	31	8	-2.21866E-001	-2.20341E-001	0.00000E+000	...........	1415.63
	32	8.25	-2.21367E-001	-2.19852E-001	0.00000E+000	...........	1415.63
	33	8.5	-2.20872E-001	-2.19371E-001	0.00000E+000	...........	1415.63
	34	8.75	-2.20381E-001	-2.18885E-001	0.00000E+000	...........	1415.63
	35	9	-2.19893E-001	-2.18403E-001	0.00000E+000	...........	1415.72
	36	9.25	-2.19408E-001	-2.17930E-001	0.00000E+000	...........	1415.72
	37	9.5	-2.18925E-001	-2.17470E-001	0.00000E+000	...........	1415.72
	38	9.75	-2.18447E-001	-2.17016E-001	0.00000E+000	...........	1415.72
	39	10	-2.17975E-001	-2.16556E-001	0.00000E+000	...........	1415.55
EOC	QUANT	-0.2179753	Open Circuit (V)
PSTATMODEL	IQUANT	64	Pstat Model
PSTATSECTION	LABEL	IFC1010-22099	Pstat Section
PSTATSERIALNO	LABEL	22099	Pstat Serial Number
CTRLMODE	IQUANT	1	Control Mode
ELECTROMETER	IQUANT	0	RE=0 or CS=1
IESTAB	IQUANT	0	I/E Stability
CASPEED	IQUANT	3	Control Amp Speed
CONVENTION	IQUANT	1	Current Convention
ICHRANGE	IQUANT	2	Ich Range
ICHRANGEMODE	TOGGLE	F	Ich Auto Range
ICHOFFSETENABLE	TOGGLE	T	Ich Offset Enable
ICHOFFSET	QUANT	0	Ich Offset (V)
ICHFILTER	IQUANT	4	Ich Filter
VCHRANGE	IQUANT	2	Vch Range
VCHRANGEMODE	TOGGLE	F	Vch Auto Range
VCHOFFSETENABLE	TOGGLE	T	Vch Offset Enable
VCHOFFSET	QUANT	0	Vch Offset (V)
VCHFILTER	IQUANT	4	Vch Filter
IERANGELOWERLIMIT	IQUANT	4	I/E Range Lower Limit
IERANGEMODE	TOGGLE	F	I/E AutoRange
IERANGE	IQUANT	7	I/E Range
ACHSELECT	IQUANT	0	Ach Select
ACHRANGE	IQUANT	2	Ach Range
ACHOFFSETENABLE	TOGGLE	F	Ach Offset Enable
ACHOFFSET	QUANT	0	Ach Offset (V)
ACHFILTER	IQUANT	1	Ach Filter
SENSECABLEID	IQUANT	14	Sense Cable ID
PWRCABLEID	IQUANT	14	Power Cable ID
DCCALDATE	LABEL	11/25/2025	DC Calibration Date
ACCALDATE	LABEL	9/8/2018	AC Calibration Date
FRAMEWORKVERSION	QUANT	7.07	Framework Version
INSTRUMENTVERSION	LABEL	4.34	Instrument Version
ZCURVE	TABLE
	Pt	Time	Freq	Zreal	Zimag	Zsig	Zmod	Zphz	Idc	Vdc	IERange
	#	s	Hz	ohm	ohm	V	ohm	°	A	V	#
	0	6	1004.464	87.28162	-31.48727	1	92.78755	-19.83715	-4.053015E-005	-1.40004	9
	1	9	800.3049	87.91102	-38.70048	1	96.0525	-23.76021	-3.743701E-005	-1.400044	9
	2	11	631.0096	88.72235	-48.19759	1	100.9686	-28.51261	-3.555373E-005	-1.40004	9
	3	14	498.6702	89.77669	-60.06804	1	108.0186	-33.7858	-3.430124E-005	-1.400039	9
	4	16	397.2458	91.12736	-74.45771	1	117.6781	-39.25134	-3.347453E-005	-1.400038	9
	5	18	319.6023	92.87794	-91.52661	1	130.3972	-44.58014	-3.288784E-005	-1.400038	9
	6	21	251.1161	95.6071	-115.1393	1	149.6589	-50.29512	-3.241531E-005	-1.400037	9
	7	23	200.8929	99.1375	-142.3519	1	173.4713	-55.14565	-3.200645E-005	-1.40004	9
	8	26	158.0056	104.5818	-178.8155	1	207.1529	-59.67839	-3.1683E-005	-1.40004	9
	9	28	125.558	112.0132	-222.1979	1	248.835	-63.24665	-3.14283E-005	-1.400035	9
	10	30	99.734	122.738	-275.8388	1	301.9133	-66.01272	-3.092202E-005	-1.400023	8
	11	33	79.44915	137.5896	-340.8114	1	367.5368	-68.01548	-3.079019E-005	-1.400011	8
	12	35	63.34459	158.7389	-419.5798	1	448.6037	-69.27695	-3.06167E-005	-1.400013	8
	13	38	49.86702	191.101	-521.2544	1	555.1808	-69.86617	-3.049262E-005	-1.400015	8
	14	40	38.10976	243.7567	-661.0878	1	704.5952	-69.76003	-3.032079E-005	-1.400012	8
	15	43	31.25	298.4301	-784.0396	1	838.9151	-69.1616	-3.019642E-005	-1.400012	8
	16	46	24.93351	383.6345	-945.8619	1	1020.701	-67.9229	-3.010602E-005	-1.40001	8
	17	48	19.94681	499.3121	-1128.641	1	1234.156	-66.13534	-3.000131E-005	-1.40001	8
	18	51	15.57309	676.4362	-1354.311	1	1513.844	-63.4593	-2.993173E-005	-1.400011	8
	19	54	12.40079	895.4022	-1574.385	1	1811.197	-60.37175	-2.982601E-005	-1.40001	8
	20	57	9.91015	1172.514	-1787.506	1	2137.748	-56.73715	-2.972475E-005	-1.40001	8
	21	61	7.971939	1500.353	-1971.879	1	2477.774	-52.7334	-2.961524E-005	-1.400011	8
	22	65	6.351626	1893.598	-2117.824	1	2840.931	-48.19933	-2.950681E-005	-1.400012	8
	23	69	4.970838	2348.63	-2204.166	1	3220.933	-43.18257	-2.942157E-005	-1.400012	8
	24	74	3.942389	2774.776	-2218.261	1	3552.473	-38.64016	-2.931327E-005	-1.400013	8
	25	79	3.16723	3146.945	-2188.285	1	3832.995	-34.81352	-2.921304E-005	-1.400014	8
	26	86	2.485419	3521.017	-2131.615	1	4115.986	-31.19061	-2.911507E-005	-1.400012	8
	27	94	1.971194	3824.774	-2085.953	1	4356.616	-28.60714	-2.899219E-005	-1.400013	8
	28	103	1.605308	4063.402	-2067.974	1	4559.359	-26.97276	-2.891882E-005	-1.400013	8
	29	114	1.260081	4320.205	-2075.051	1	4792.704	-25.65559	-2.886267E-005	-1.400013	8
	30	127	1.001603	4557.898	-2129.389	1	5030.778	-25.04135	-2.879754E-005	-1.400013	8
