EXPLAIN
TAG	EISPOT
TITLE	LABEL	Potentiostatic EIS	Test &Identifier
DATE	LABEL	4/30/2026	Date
TIME	LABEL	13:34:17	Time
NOTES	NOTES	1	&Notes...
	
PSTAT	PSTAT	Rhea	Potentiostat
VDC	POTEN	-1.40000E+000	F	DC &Voltage (V)
FREQINIT	QUANT	1.00000E+003	Initial Fre&q. (Hz)
FREQFINAL	QUANT	1.00000E+000	Final Fre&q. (Hz)
PTSPERDEC	QUANT	1.00000E+001	Points/&decade
VAC	QUANT	1.00000E+001	AC &Voltage (mV rms)
AREA	QUANT	2.80000E-001	&Area (cm^2)
CONDIT	TWOPARAM	F	0.00000E+000	0.00000E+000	Conditionin&g	Time(s)	E(V)
DELAY	TWOPARAM	T	1.00000E+001	0.00000E+000	Init. De&lay	Time(s)	Stab.(mV/s)
SPEED	SELECTOR	2	&Optimize for:
ZGUESS	QUANT	2.86800E+005	E&stimated Z (ohms)
OCVCURVE	TABLE	40
	Pt	T	Vf	Vm	Ach	Over	Temp
	#	s	V vs. Ref.	V	V	bits	deg C
	0	0.25	-1.76927E-001	-1.76927E-001	0.00000E+000	...........	1415.81
	1	0.5	-1.76921E-001	-1.76632E-001	0.00000E+000	...........	1415.81
	2	0.75	-1.76886E-001	-1.76337E-001	0.00000E+000	...........	1415.81
	3	1	-1.76787E-001	-1.76053E-001	0.00000E+000	...........	1415.81
	4	1.25	-1.76607E-001	-1.75781E-001	0.00000E+000	...........	1415.90
	5	1.5	-1.76364E-001	-1.75514E-001	0.00000E+000	...........	1415.90
	6	1.75	-1.76092E-001	-1.75254E-001	0.00000E+000	...........	1415.90
	7	2	-1.75814E-001	-1.74982E-001	0.00000E+000	...........	1415.90
	8	2.25	-1.75540E-001	-1.74719E-001	0.00000E+000	...........	1415.90
	9	2.5	-1.75271E-001	-1.74456E-001	0.00000E+000	...........	1415.90
	10	2.75	-1.75005E-001	-1.74195E-001	0.00000E+000	...........	1415.90
	11	3	-1.74741E-001	-1.73937E-001	0.00000E+000	...........	1415.90
	12	3.25	-1.74478E-001	-1.73684E-001	0.00000E+000	...........	1415.90
	13	3.5	-1.74218E-001	-1.73435E-001	0.00000E+000	...........	1415.90
	14	3.75	-1.73960E-001	-1.73182E-001	0.00000E+000	...........	1415.90
	15	4	-1.73706E-001	-1.72936E-001	0.00000E+000	...........	1415.90
	16	4.25	-1.73454E-001	-1.72678E-001	0.00000E+000	...........	1415.90
	17	4.5	-1.73203E-001	-1.72436E-001	0.00000E+000	...........	1415.90
	18	4.75	-1.72953E-001	-1.72189E-001	0.00000E+000	...........	1415.90
	19	5	-1.72703E-001	-1.71945E-001	0.00000E+000	...........	1415.90
	20	5.25	-1.72455E-001	-1.71707E-001	0.00000E+000	...........	1415.90
	21	5.5	-1.72210E-001	-1.71471E-001	0.00000E+000	...........	1415.90
	22	5.75	-1.71967E-001	-1.71229E-001	0.00000E+000	...........	1415.90
	23	6	-1.71726E-001	-1.70984E-001	0.00000E+000	...........	1415.90
	24	6.25	-1.71487E-001	-1.70747E-001	0.00000E+000	...........	1415.90
	25	6.5	-1.71247E-001	-1.70521E-001	0.00000E+000	...........	1415.90
	26	6.75	-1.71008E-001	-1.70307E-001	0.00000E+000	...........	1415.90
	27	7	-1.70773E-001	-1.70074E-001	0.00000E+000	...........	1415.90
	28	7.25	-1.70544E-001	-1.69841E-001	0.00000E+000	...........	1415.90
	29	7.5	-1.70317E-001	-1.69618E-001	0.00000E+000	...........	1415.90
	30	7.75	-1.70090E-001	-1.69390E-001	0.00000E+000	...........	1415.90
	31	8	-1.69862E-001	-1.69150E-001	0.00000E+000	...........	1415.90
	32	8.25	-1.69633E-001	-1.68928E-001	0.00000E+000	...........	1415.72
	33	8.5	-1.69404E-001	-1.68694E-001	0.00000E+000	...........	1415.72
	34	8.75	-1.69173E-001	-1.68456E-001	0.00000E+000	...........	1415.72
	35	9	-1.68942E-001	-1.68224E-001	0.00000E+000	...........	1415.72
	36	9.25	-1.68710E-001	-1.67988E-001	0.00000E+000	...........	1415.90
	37	9.5	-1.68476E-001	-1.67758E-001	0.00000E+000	...........	1415.90
	38	9.75	-1.68242E-001	-1.67535E-001	0.00000E+000	...........	1415.90
	39	10	-1.68010E-001	-1.67304E-001	0.00000E+000	...........	1415.90
EOC	QUANT	-0.1680098	Open Circuit (V)
PSTATMODEL	IQUANT	64	Pstat Model
PSTATSECTION	LABEL	IFC1010-22099	Pstat Section
PSTATSERIALNO	LABEL	22099	Pstat Serial Number
CTRLMODE	IQUANT	1	Control Mode
ELECTROMETER	IQUANT	0	RE=0 or CS=1
IESTAB	IQUANT	0	I/E Stability
CASPEED	IQUANT	3	Control Amp Speed
CONVENTION	IQUANT	1	Current Convention
ICHRANGE	IQUANT	2	Ich Range
ICHRANGEMODE	TOGGLE	F	Ich Auto Range
ICHOFFSETENABLE	TOGGLE	T	Ich Offset Enable
ICHOFFSET	QUANT	0	Ich Offset (V)
ICHFILTER	IQUANT	4	Ich Filter
VCHRANGE	IQUANT	2	Vch Range
VCHRANGEMODE	TOGGLE	F	Vch Auto Range
VCHOFFSETENABLE	TOGGLE	T	Vch Offset Enable
VCHOFFSET	QUANT	0	Vch Offset (V)
VCHFILTER	IQUANT	4	Vch Filter
IERANGELOWERLIMIT	IQUANT	4	I/E Range Lower Limit
IERANGEMODE	TOGGLE	F	I/E AutoRange
IERANGE	IQUANT	7	I/E Range
ACHSELECT	IQUANT	0	Ach Select
ACHRANGE	IQUANT	2	Ach Range
ACHOFFSETENABLE	TOGGLE	F	Ach Offset Enable
ACHOFFSET	QUANT	0	Ach Offset (V)
ACHFILTER	IQUANT	1	Ach Filter
SENSECABLEID	IQUANT	14	Sense Cable ID
PWRCABLEID	IQUANT	14	Power Cable ID
DCCALDATE	LABEL	11/25/2025	DC Calibration Date
ACCALDATE	LABEL	9/8/2018	AC Calibration Date
FRAMEWORKVERSION	QUANT	7.07	Framework Version
INSTRUMENTVERSION	LABEL	4.34	Instrument Version
ZCURVE	TABLE
	Pt	Time	Freq	Zreal	Zimag	Zsig	Zmod	Zphz	Idc	Vdc	IERange
	#	s	Hz	ohm	ohm	V	ohm	°	A	V	#
	0	7	1004.464	61.28072	-22.70498	1	65.35168	-20.33006	-9.354314E-005	-1.400034	9
	1	9	800.3049	61.88806	-27.58455	1	67.75721	-24.02334	-9.030369E-005	-1.400033	9
	2	11	631.0096	62.63444	-33.91232	1	71.22583	-28.43256	-8.809337E-005	-1.400035	9
	3	14	498.6702	63.60719	-41.87541	1	76.15395	-33.35867	-8.723613E-005	-1.400034	9
	4	16	397.2458	64.79834	-51.55349	1	82.80451	-38.50572	-8.609278E-005	-1.400029	9
	5	19	319.6023	66.35512	-63.01018	1	91.50565	-43.51886	-8.542737E-005	-1.400035	9
	6	21	251.1161	68.78082	-78.88171	1	104.6572	-48.91323	-8.465551E-005	-1.400032	9
	7	23	200.8929	71.84287	-97.0711	1	120.765	-53.49464	-8.420671E-005	-1.40003	9
	8	26	158.0056	76.49638	-121.3225	1	143.4254	-57.76772	-8.381458E-005	-1.400033	9
	9	28	125.558	82.7468	-149.9878	1	171.2991	-61.11491	-8.343205E-005	-1.400034	9
	10	30	99.734	91.5409	-184.973	1	206.385	-63.66975	-8.330855E-005	-1.400036	9
	11	33	79.44915	103.6592	-226.8614	1	249.422	-65.44304	-8.321556E-005	-1.400025	9
	12	35	63.34459	120.4058	-277.2145	1	302.2341	-66.52268	-8.2991E-005	-1.400021	9
	13	38	49.86702	145.1239	-341.1543	1	370.7388	-66.95554	-8.294481E-005	-1.400026	9
	14	40	38.10976	185.0709	-427.0267	1	465.4063	-66.56837	-8.314949E-005	-1.400026	9
	15	43	31.25	224.6563	-501.0152	1	549.078	-65.84843	-8.295803E-005	-1.400026	9
	16	45	24.93351	284.6821	-596.7578	1	661.1837	-64.49662	-8.296122E-005	-1.400026	9
	17	47	19.94681	362.8368	-700.5219	1	788.9115	-62.61801	-8.298657E-005	-1.400027	9
	18	50	15.57309	476.5227	-826.0827	1	953.67	-60.02166	-8.305489E-005	-1.400023	9
	19	53	12.40079	611.3972	-946.0644	1	1126.43	-57.1273	-8.305085E-005	-1.400027	9
	20	56	9.91015	773.2303	-1046.367	1	1301.064	-53.53683	-8.379739E-005	-1.400024	9
	21	60	7.971939	958.872	-1131.467	1	1483.123	-49.72007	-8.428651E-005	-1.400022	9
	22	64	6.351626	1162.604	-1206.814	1	1675.723	-46.06892	-8.530629E-005	-1.400024	9
	23	70	4.970838	1407.58	-1253.12	1	1884.567	-41.67757	-8.579218E-005	-1.400023	9
	24	74	3.942389	1631.346	-1249.529	1	2054.9	-37.45031	-8.670446E-005	-1.400025	9
	25	80	3.16723	1853.573	-1275.324	1	2249.93	-34.52935	-8.651267E-005	-1.400027	9
	26	87	2.485419	2091.685	-1264.242	1	2444.065	-31.14932	-8.667953E-005	-1.400027	9
	27	94	1.971194	2245.983	-1203.082	1	2547.91	-28.17615	-8.824635E-005	-1.400027	9
	28	104	1.605308	2441.893	-1187.451	1	2715.305	-25.93286	-8.855768E-005	-1.400026	9
	29	114	1.260081	2631.94	-1144.589	1	2870.051	-23.50346	-8.939474E-005	-1.400025	9
	30	128	1.001603	2841.865	-1126.598	1	3057.028	-21.6248	-8.97116E-005	-1.400025	9
