EXPLAIN
TAG	EISPOT
TITLE	LABEL	Potentiostatic EIS	Test &Identifier
DATE	LABEL	4/30/2026	Date
TIME	LABEL	12:33:05	Time
NOTES	NOTES	1	&Notes...
	
PSTAT	PSTAT	Rhea	Potentiostat
VDC	POTEN	-1.20000E+000	F	DC &Voltage (V)
FREQINIT	QUANT	1.00000E+003	Initial Fre&q. (Hz)
FREQFINAL	QUANT	1.00000E+000	Final Fre&q. (Hz)
PTSPERDEC	QUANT	1.00000E+001	Points/&decade
VAC	QUANT	1.00000E+001	AC &Voltage (mV rms)
AREA	QUANT	2.80000E-001	&Area (cm^2)
CONDIT	TWOPARAM	F	0.00000E+000	0.00000E+000	Conditionin&g	Time(s)	E(V)
DELAY	TWOPARAM	T	1.00000E+001	0.00000E+000	Init. De&lay	Time(s)	Stab.(mV/s)
SPEED	SELECTOR	2	&Optimize for:
ZGUESS	QUANT	2.86800E+005	E&stimated Z (ohms)
OCVCURVE	TABLE	40
	Pt	T	Vf	Vm	Ach	Over	Temp
	#	s	V vs. Ref.	V	V	bits	deg C
	0	0.25	1.26406E-001	1.26406E-001	0.00000E+000	...........	1415.46
	1	0.5	1.26445E-001	1.28449E-001	0.00000E+000	...........	1415.46
	2	0.75	1.26683E-001	1.30316E-001	0.00000E+000	...........	1415.46
	3	1	1.27351E-001	1.32024E-001	0.00000E+000	...........	1415.46
	4	1.25	1.28529E-001	1.33536E-001	0.00000E+000	...........	1415.63
	5	1.5	1.30057E-001	1.34896E-001	0.00000E+000	...........	1415.63
	6	1.75	1.31690E-001	1.36131E-001	0.00000E+000	...........	1415.63
	7	2	1.33252E-001	1.37230E-001	0.00000E+000	...........	1415.63
	8	2.25	1.34671E-001	1.38233E-001	0.00000E+000	...........	1415.19
	9	2.5	1.35937E-001	1.39136E-001	0.00000E+000	...........	1415.19
	10	2.75	1.37069E-001	1.39953E-001	0.00000E+000	...........	1415.19
	11	3	1.38086E-001	1.40671E-001	0.00000E+000	...........	1415.19
	12	3.25	1.39000E-001	1.41306E-001	0.00000E+000	...........	1415.11
	13	3.5	1.39821E-001	1.41882E-001	0.00000E+000	...........	1415.11
	14	3.75	1.40555E-001	1.42389E-001	0.00000E+000	...........	1415.11
	15	4	1.41209E-001	1.42866E-001	0.00000E+000	...........	1415.11
	16	4.25	1.41794E-001	1.43290E-001	0.00000E+000	...........	1415.37
	17	4.5	1.42320E-001	1.43663E-001	0.00000E+000	...........	1415.37
	18	4.75	1.42794E-001	1.43986E-001	0.00000E+000	...........	1415.37
	19	5	1.43220E-001	1.44279E-001	0.00000E+000	...........	1415.37
	20	5.25	1.43599E-001	1.44536E-001	0.00000E+000	...........	1415.63
	21	5.5	1.43935E-001	1.44757E-001	0.00000E+000	...........	1415.63
	22	5.75	1.44231E-001	1.44948E-001	0.00000E+000	...........	1415.63
	23	6	1.44491E-001	1.45113E-001	0.00000E+000	...........	1415.63
	24	6.25	1.44717E-001	1.45246E-001	0.00000E+000	...........	1415.19
	25	6.5	1.44913E-001	1.45365E-001	0.00000E+000	...........	1415.19
	26	6.75	1.45079E-001	1.45418E-001	0.00000E+000	...........	1415.19
	27	7	1.45216E-001	1.45438E-001	0.00000E+000	...........	1415.19
	28	7.25	1.45318E-001	1.45398E-001	0.00000E+000	...........	1415.37
	29	7.5	1.45380E-001	1.45327E-001	0.00000E+000	...........	1415.37
	30	7.75	1.45399E-001	1.45258E-001	0.00000E+000	...........	1415.37
	31	8	1.45379E-001	1.45209E-001	0.00000E+000	...........	1415.37
	32	8.25	1.45333E-001	1.45142E-001	0.00000E+000	...........	1415.55
	33	8.5	1.45273E-001	1.45062E-001	0.00000E+000	...........	1415.55
	34	8.75	1.45209E-001	1.45004E-001	0.00000E+000	...........	1415.55
	35	9	1.45142E-001	1.44930E-001	0.00000E+000	...........	1415.55
	36	9.25	1.45074E-001	1.44856E-001	0.00000E+000	...........	1415.63
	37	9.5	1.45004E-001	1.44755E-001	0.00000E+000	...........	1415.63
	38	9.75	1.44930E-001	1.44653E-001	0.00000E+000	...........	1415.63
	39	10	1.44848E-001	1.44547E-001	0.00000E+000	...........	1415.63
EOC	QUANT	0.1448482	Open Circuit (V)
PSTATMODEL	IQUANT	64	Pstat Model
PSTATSECTION	LABEL	IFC1010-22099	Pstat Section
PSTATSERIALNO	LABEL	22099	Pstat Serial Number
CTRLMODE	IQUANT	1	Control Mode
ELECTROMETER	IQUANT	0	RE=0 or CS=1
IESTAB	IQUANT	0	I/E Stability
CASPEED	IQUANT	3	Control Amp Speed
CONVENTION	IQUANT	1	Current Convention
ICHRANGE	IQUANT	2	Ich Range
ICHRANGEMODE	TOGGLE	F	Ich Auto Range
ICHOFFSETENABLE	TOGGLE	T	Ich Offset Enable
ICHOFFSET	QUANT	0	Ich Offset (V)
ICHFILTER	IQUANT	4	Ich Filter
VCHRANGE	IQUANT	2	Vch Range
VCHRANGEMODE	TOGGLE	F	Vch Auto Range
VCHOFFSETENABLE	TOGGLE	T	Vch Offset Enable
VCHOFFSET	QUANT	0	Vch Offset (V)
VCHFILTER	IQUANT	4	Vch Filter
IERANGELOWERLIMIT	IQUANT	4	I/E Range Lower Limit
IERANGEMODE	TOGGLE	F	I/E AutoRange
IERANGE	IQUANT	7	I/E Range
ACHSELECT	IQUANT	0	Ach Select
ACHRANGE	IQUANT	2	Ach Range
ACHOFFSETENABLE	TOGGLE	F	Ach Offset Enable
ACHOFFSET	QUANT	0	Ach Offset (V)
ACHFILTER	IQUANT	1	Ach Filter
SENSECABLEID	IQUANT	14	Sense Cable ID
PWRCABLEID	IQUANT	14	Power Cable ID
DCCALDATE	LABEL	11/25/2025	DC Calibration Date
ACCALDATE	LABEL	9/8/2018	AC Calibration Date
FRAMEWORKVERSION	QUANT	7.07	Framework Version
INSTRUMENTVERSION	LABEL	4.34	Instrument Version
ZCURVE	TABLE
	Pt	Time	Freq	Zreal	Zimag	Zsig	Zmod	Zphz	Idc	Vdc	IERange
	#	s	Hz	ohm	ohm	V	ohm	°	A	V	#
	0	6	1004.464	159.8852	-62.85684	1	171.7971	-21.46165	-2.460475E-005	-1.200001	9
	1	8	800.3049	158.0489	-72.71638	1	173.9745	-24.70659	-2.386257E-005	-1.200001	9
	2	10	631.0096	157.2127	-85.57814	1	178.9957	-28.56149	-2.362388E-005	-1.199999	9
	3	13	498.6702	156.9809	-101.2932	1	186.8243	-32.83246	-2.353478E-005	-1.199997	9
	4	16	397.2458	156.6374	-119.9438	1	197.286	-37.44279	-2.357215E-005	-1.199996	9
	5	18	319.6023	157.1588	-142.0633	1	211.851	-42.11193	-2.364434E-005	-1.199998	9
	6	20	251.1161	158.6192	-172.6239	1	234.4335	-47.42096	-2.377638E-005	-1.199997	9
	7	23	200.8929	159.7394	-207.9252	1	262.2014	-52.46658	-2.364607E-005	-1.199982	8
	8	25	158.0056	162.4941	-255.9754	1	303.1959	-57.59248	-2.38516E-005	-1.199984	8
	9	28	125.558	166.1733	-314.0954	1	355.3442	-62.11876	-2.401769E-005	-1.199983	8
	10	30	99.734	172.3857	-387.0562	1	423.709	-65.99294	-2.420989E-005	-1.199984	8
	11	32	79.44915	181.0747	-477.3178	1	510.5099	-69.22532	-2.443932E-005	-1.199973	8
	12	35	63.34459	194.7678	-588.7965	1	620.174	-71.69632	-2.462377E-005	-1.199974	8
	13	37	49.86702	217.1766	-737.7424	1	769.0446	-73.59663	-2.481883E-005	-1.199974	8
	14	40	38.10976	257.227	-946.1675	1	980.509	-74.79104	-2.508367E-005	-1.199975	8
	15	42	31.25	299.7535	-1136.324	1	1175.196	-75.22245	-2.533385E-005	-1.199973	8
	16	45	24.93351	370.6613	-1396.9	1	1445.24	-75.13927	-2.564463E-005	-1.199975	8
	17	47	19.94681	470.9759	-1708.613	1	1772.337	-74.58923	-2.578455E-005	-1.199973	8
	18	50	15.57309	635.9255	-2124.722	1	2217.847	-73.33765	-2.602923E-005	-1.199974	8
	19	52	12.40079	857.0411	-2579.804	1	2718.438	-71.62291	-2.623622E-005	-1.199976	8
	20	55	9.91015	1160.776	-3091.614	1	3302.345	-69.42087	-2.64482E-005	-1.199972	8
	21	57	7.971939	1564.499	-3640.702	1	3962.621	-66.74561	-2.66406E-005	-1.199971	8
	22	60	6.351626	2126.23	-4243.341	1	4746.24	-63.38571	-2.680421E-005	-1.19997	8
	23	64	4.970838	2892.736	-4890.878	1	5682.307	-59.39758	-2.714538E-005	-1.19997	8
	24	69	3.942389	3782.927	-5434.902	1	6621.834	-55.16042	-2.76924E-005	-1.199972	8
	25	75	3.16723	4740.447	-5938.915	1	7598.852	-51.4031	-2.80869E-005	-1.19997	8
	26	81	2.485419	5861.732	-6249.397	1	8568.247	-46.83335	-2.863124E-005	-1.199973	8
	27	89	1.971194	6977.107	-6436.271	1	9492.397	-42.69105	-2.906828E-005	-1.19997	8
	28	98	1.605308	7955.412	-6434.614	1	10231.95	-38.96714	-2.989079E-005	-1.19997	8
	29	109	1.260081	9049.174	-6311.42	1	11032.75	-34.89416	-3.083632E-005	-1.199968	8
	30	122	1.001603	10306.47	-6425.49	1	12145.38	-31.94116	-3.174224E-005	-1.199968	8
