EXPLAIN
TAG	EISPOT
TITLE	LABEL	Potentiostatic EIS	Test &Identifier
DATE	LABEL	4/30/2026	Date
TIME	LABEL	14:03:08	Time
NOTES	NOTES	1	&Notes...
	
PSTAT	PSTAT	Rhea	Potentiostat
VDC	POTEN	-1.40000E+000	F	DC &Voltage (V)
FREQINIT	QUANT	1.00000E+003	Initial Fre&q. (Hz)
FREQFINAL	QUANT	1.00000E+000	Final Fre&q. (Hz)
PTSPERDEC	QUANT	1.00000E+001	Points/&decade
VAC	QUANT	1.00000E+001	AC &Voltage (mV rms)
AREA	QUANT	2.80000E-001	&Area (cm^2)
CONDIT	TWOPARAM	F	0.00000E+000	0.00000E+000	Conditionin&g	Time(s)	E(V)
DELAY	TWOPARAM	T	1.00000E+001	0.00000E+000	Init. De&lay	Time(s)	Stab.(mV/s)
SPEED	SELECTOR	2	&Optimize for:
ZGUESS	QUANT	2.86800E+005	E&stimated Z (ohms)
OCVCURVE	TABLE	40
	Pt	T	Vf	Vm	Ach	Over	Temp
	#	s	V vs. Ref.	V	V	bits	deg C
	0	0.25	-3.05107E-001	-3.05107E-001	0.00000E+000	...........	1415.99
	1	0.5	-3.05084E-001	-3.03946E-001	0.00000E+000	...........	1415.99
	2	0.75	-3.04948E-001	-3.02819E-001	0.00000E+000	...........	1415.99
	3	1	-3.04559E-001	-3.01704E-001	0.00000E+000	...........	1415.99
	4	1.25	-3.03857E-001	-3.00621E-001	0.00000E+000	...........	1415.81
	5	1.5	-3.02910E-001	-2.99538E-001	0.00000E+000	...........	1415.81
	6	1.75	-3.01841E-001	-2.98495E-001	0.00000E+000	...........	1415.81
	7	2	-3.00741E-001	-2.97458E-001	0.00000E+000	...........	1415.81
	8	2.25	-2.99653E-001	-2.96441E-001	0.00000E+000	...........	1415.81
	9	2.5	-2.98590E-001	-2.95433E-001	0.00000E+000	...........	1415.81
	10	2.75	-2.97550E-001	-2.94431E-001	0.00000E+000	...........	1415.81
	11	3	-2.96527E-001	-2.93459E-001	0.00000E+000	...........	1415.81
	12	3.25	-2.95519E-001	-2.92528E-001	0.00000E+000	...........	1415.90
	13	3.5	-2.94528E-001	-2.91574E-001	0.00000E+000	...........	1415.90
	14	3.75	-2.93555E-001	-2.90611E-001	0.00000E+000	...........	1415.90
	15	4	-2.92595E-001	-2.89691E-001	0.00000E+000	...........	1415.90
	16	4.25	-2.91645E-001	-2.88784E-001	0.00000E+000	...........	1415.90
	17	4.5	-2.90705E-001	-2.87893E-001	0.00000E+000	...........	1415.90
	18	4.75	-2.89778E-001	-2.87023E-001	0.00000E+000	...........	1415.90
	19	5	-2.88868E-001	-2.86147E-001	0.00000E+000	...........	1415.90
	20	5.25	-2.87973E-001	-2.85284E-001	0.00000E+000	...........	1415.90
	21	5.5	-2.87092E-001	-2.84440E-001	0.00000E+000	...........	1415.90
	22	5.75	-2.86222E-001	-2.83612E-001	0.00000E+000	...........	1415.90
	23	6	-2.85364E-001	-2.82797E-001	0.00000E+000	...........	1415.90
	24	6.25	-2.84518E-001	-2.81991E-001	0.00000E+000	...........	1415.90
	25	6.5	-2.83686E-001	-2.81184E-001	0.00000E+000	...........	1415.90
	26	6.75	-2.82866E-001	-2.80362E-001	0.00000E+000	...........	1415.90
	27	7	-2.82053E-001	-2.79592E-001	0.00000E+000	...........	1415.90
	28	7.25	-2.81246E-001	-2.78828E-001	0.00000E+000	...........	1415.81
	29	7.5	-2.80448E-001	-2.78063E-001	0.00000E+000	...........	1415.81
	30	7.75	-2.79663E-001	-2.77327E-001	0.00000E+000	...........	1415.81
	31	8	-2.78893E-001	-2.76590E-001	0.00000E+000	...........	1415.81
	32	8.25	-2.78135E-001	-2.75861E-001	0.00000E+000	...........	1415.81
	33	8.5	-2.77388E-001	-2.75130E-001	0.00000E+000	...........	1415.81
	34	8.75	-2.76651E-001	-2.74423E-001	0.00000E+000	...........	1415.81
	35	9	-2.75921E-001	-2.73723E-001	0.00000E+000	...........	1415.81
	36	9.25	-2.75198E-001	-2.73019E-001	0.00000E+000	...........	1415.81
	37	9.5	-2.74485E-001	-2.72338E-001	0.00000E+000	...........	1415.81
	38	9.75	-2.73780E-001	-2.71643E-001	0.00000E+000	...........	1415.81
	39	10	-2.73082E-001	-2.70969E-001	0.00000E+000	...........	1415.81
EOC	QUANT	-0.2730818	Open Circuit (V)
PSTATMODEL	IQUANT	64	Pstat Model
PSTATSECTION	LABEL	IFC1010-22099	Pstat Section
PSTATSERIALNO	LABEL	22099	Pstat Serial Number
CTRLMODE	IQUANT	1	Control Mode
ELECTROMETER	IQUANT	0	RE=0 or CS=1
IESTAB	IQUANT	0	I/E Stability
CASPEED	IQUANT	3	Control Amp Speed
CONVENTION	IQUANT	1	Current Convention
ICHRANGE	IQUANT	2	Ich Range
ICHRANGEMODE	TOGGLE	F	Ich Auto Range
ICHOFFSETENABLE	TOGGLE	T	Ich Offset Enable
ICHOFFSET	QUANT	0	Ich Offset (V)
ICHFILTER	IQUANT	4	Ich Filter
VCHRANGE	IQUANT	2	Vch Range
VCHRANGEMODE	TOGGLE	F	Vch Auto Range
VCHOFFSETENABLE	TOGGLE	T	Vch Offset Enable
VCHOFFSET	QUANT	0	Vch Offset (V)
VCHFILTER	IQUANT	4	Vch Filter
IERANGELOWERLIMIT	IQUANT	4	I/E Range Lower Limit
IERANGEMODE	TOGGLE	F	I/E AutoRange
IERANGE	IQUANT	7	I/E Range
ACHSELECT	IQUANT	0	Ach Select
ACHRANGE	IQUANT	2	Ach Range
ACHOFFSETENABLE	TOGGLE	F	Ach Offset Enable
ACHOFFSET	QUANT	0	Ach Offset (V)
ACHFILTER	IQUANT	1	Ach Filter
SENSECABLEID	IQUANT	14	Sense Cable ID
PWRCABLEID	IQUANT	14	Power Cable ID
DCCALDATE	LABEL	11/25/2025	DC Calibration Date
ACCALDATE	LABEL	9/8/2018	AC Calibration Date
FRAMEWORKVERSION	QUANT	7.07	Framework Version
INSTRUMENTVERSION	LABEL	4.34	Instrument Version
ZCURVE	TABLE
	Pt	Time	Freq	Zreal	Zimag	Zsig	Zmod	Zphz	Idc	Vdc	IERange
	#	s	Hz	ohm	ohm	V	ohm	°	A	V	#
	0	8	1004.464	125.1805	-32.91312	1	129.435	-14.7311	-5.109732E-005	-1.400041	9
	1	10	800.3049	125.7802	-40.06078	1	132.0058	-17.66659	-4.897242E-005	-1.40004	9
	2	13	631.0096	126.9152	-49.41497	1	136.1958	-21.27366	-4.754852E-005	-1.400042	9
	3	15	498.6702	128.7153	-61.03172	1	142.4517	-25.36847	-4.665992E-005	-1.400042	9
	4	18	397.2458	130.8009	-74.99549	1	150.7753	-29.82806	-4.608377E-005	-1.400041	9
	5	20	319.6023	133.1022	-91.38717	1	161.4553	-34.47326	-4.566854E-005	-1.400045	9
	6	23	251.1161	136.5957	-113.9093	1	177.8587	-39.82526	-4.53038E-005	-1.40004	9
	7	25	200.8929	140.9581	-139.6295	1	198.4076	-44.72871	-4.512554E-005	-1.400042	9
	8	27	158.0056	147.1929	-173.7892	1	227.7464	-49.73666	-4.486931E-005	-1.40004	9
	9	30	125.558	155.3451	-214.0948	1	264.516	-54.03572	-4.472253E-005	-1.400039	9
	10	32	99.734	166.7223	-263.8259	1	312.0904	-57.70955	-4.461799E-005	-1.400039	9
	11	35	79.44915	181.7953	-323.558	1	371.1325	-60.66998	-4.458963E-005	-1.400026	9
	12	37	63.34459	202.9081	-396.213	1	445.1476	-62.88216	-4.421184E-005	-1.400003	8
	13	39	49.86702	234.5101	-489.941	1	543.1733	-64.42191	-4.417782E-005	-1.400003	8
	14	42	38.10976	285.1934	-618.9979	1	681.5377	-65.26286	-4.415907E-005	-1.400006	8
	15	44	31.25	338.0942	-732.2755	1	806.5576	-65.21706	-4.408487E-005	-1.400004	8
	16	47	24.93351	421.2751	-880.6864	1	976.259	-64.43594	-4.411445E-005	-1.400004	8
	17	49	19.94681	534.0887	-1046.721	1	1175.107	-62.96708	-4.406248E-005	-1.400004	8
	18	52	15.57309	705.885	-1246.964	1	1432.897	-60.48654	-4.402952E-005	-1.400004	8
	19	55	12.40079	915.9945	-1434.947	1	1702.386	-57.44798	-4.406787E-005	-1.400004	8
	20	58	9.91015	1172.594	-1610.669	1	1992.293	-53.94475	-4.391697E-005	-1.400007	8
	21	61	7.971939	1466.793	-1751.79	1	2284.786	-50.06018	-4.393799E-005	-1.400003	8
	22	65	6.351626	1803.85	-1860.894	1	2591.679	-45.89177	-4.390458E-005	-1.400005	8
	23	70	4.970838	2182.204	-1923.369	1	2908.842	-41.39258	-4.394625E-005	-1.400004	8
	24	74	3.942389	2529.449	-1941.607	1	3188.722	-37.50988	-4.399554E-005	-1.400004	8
	25	80	3.16723	2840.19	-1937.76	1	3438.255	-34.30432	-4.404423E-005	-1.400004	8
	26	87	2.485419	3167.955	-1928.03	1	3708.536	-31.32485	-4.407444E-005	-1.400003	8
	27	94	1.971194	3457.171	-1917.379	1	3953.274	-29.01316	-4.408797E-005	-1.400005	8
	28	104	1.605308	3713.213	-1924.092	1	4182.114	-27.39203	-4.420456E-005	-1.400003	8
	29	114	1.260081	4012.456	-1927.002	1	4451.195	-25.65288	-4.426813E-005	-1.400002	8
	30	128	1.001603	4297.534	-1928.154	1	4710.263	-24.16412	-4.443837E-005	-1.400004	8
