EXPLAIN
TAG	EISPOT
TITLE	LABEL	Potentiostatic EIS	Test &Identifier
DATE	LABEL	4/30/2026	Date
TIME	LABEL	12:54:27	Time
NOTES	NOTES	1	&Notes...
	
PSTAT	PSTAT	Titan	Potentiostat
VDC	POTEN	-1.40000E+000	F	DC &Voltage (V)
FREQINIT	QUANT	1.00000E+003	Initial Fre&q. (Hz)
FREQFINAL	QUANT	1.00000E+000	Final Fre&q. (Hz)
PTSPERDEC	QUANT	1.00000E+001	Points/&decade
VAC	QUANT	1.00000E+001	AC &Voltage (mV rms)
AREA	QUANT	2.80000E-001	&Area (cm^2)
CONDIT	TWOPARAM	F	0.00000E+000	0.00000E+000	Conditionin&g	Time(s)	E(V)
DELAY	TWOPARAM	T	1.00000E+001	0.00000E+000	Init. De&lay	Time(s)	Stab.(mV/s)
SPEED	SELECTOR	2	&Optimize for:
ZGUESS	QUANT	2.86800E+005	E&stimated Z (ohms)
OCVCURVE	TABLE	40
	Pt	T	Vf	Vm	Ach	Over	Temp
	#	s	V vs. Ref.	V	V	bits	deg C
	0	0.25	-1.89646E-001	-1.89646E-001	0.00000E+000	...........	1410.45
	1	0.5	-1.89645E-001	-1.89576E-001	0.00000E+000	...........	1410.45
	2	0.75	-1.89636E-001	-1.89500E-001	0.00000E+000	...........	1410.45
	3	1	-1.89612E-001	-1.89429E-001	0.00000E+000	...........	1410.27
	4	1.25	-1.89567E-001	-1.89354E-001	0.00000E+000	...........	1410.27
	5	1.5	-1.89506E-001	-1.89278E-001	0.00000E+000	...........	1410.27
	6	1.75	-1.89435E-001	-1.89197E-001	0.00000E+000	...........	1410.27
	7	2	-1.89360E-001	-1.89111E-001	0.00000E+000	...........	1410.54
	8	2.25	-1.89281E-001	-1.89020E-001	0.00000E+000	...........	1410.54
	9	2.5	-1.89200E-001	-1.88924E-001	0.00000E+000	...........	1410.54
	10	2.75	-1.89114E-001	-1.88830E-001	0.00000E+000	...........	1410.54
	11	3	-1.89025E-001	-1.88754E-001	0.00000E+000	...........	1410.54
	12	3.25	-1.88935E-001	-1.88706E-001	0.00000E+000	...........	1410.54
	13	3.5	-1.88851E-001	-1.88690E-001	0.00000E+000	...........	1410.54
	14	3.75	-1.88781E-001	-1.88686E-001	0.00000E+000	...........	1410.54
	15	4	-1.88732E-001	-1.88697E-001	0.00000E+000	...........	1410.54
	16	4.25	-1.88704E-001	-1.88713E-001	0.00000E+000	...........	1410.54
	17	4.5	-1.88695E-001	-1.88721E-001	0.00000E+000	...........	1410.54
	18	4.75	-1.88698E-001	-1.88723E-001	0.00000E+000	...........	1410.54
	19	5	-1.88707E-001	-1.88713E-001	0.00000E+000	...........	1410.54
	20	5.25	-1.88713E-001	-1.88695E-001	0.00000E+000	...........	1410.54
	21	5.5	-1.88714E-001	-1.88658E-001	0.00000E+000	...........	1410.54
	22	5.75	-1.88706E-001	-1.88624E-001	0.00000E+000	...........	1410.54
	23	6	-1.88687E-001	-1.88577E-001	0.00000E+000	...........	1410.54
	24	6.25	-1.88658E-001	-1.88515E-001	0.00000E+000	...........	1410.54
	25	6.5	-1.88619E-001	-1.88455E-001	0.00000E+000	...........	1410.54
	26	6.75	-1.88572E-001	-1.88375E-001	0.00000E+000	...........	1410.54
	27	7	-1.88516E-001	-1.88287E-001	0.00000E+000	...........	1410.45
	28	7.25	-1.88449E-001	-1.88188E-001	0.00000E+000	...........	1410.45
	29	7.5	-1.88373E-001	-1.88072E-001	0.00000E+000	...........	1410.45
	30	7.75	-1.88285E-001	-1.87949E-001	0.00000E+000	...........	1410.45
	31	8	-1.88186E-001	-1.87825E-001	0.00000E+000	...........	1410.54
	32	8.25	-1.88075E-001	-1.87688E-001	0.00000E+000	...........	1410.54
	33	8.5	-1.87956E-001	-1.87550E-001	0.00000E+000	...........	1410.54
	34	8.75	-1.87829E-001	-1.87411E-001	0.00000E+000	...........	1410.54
	35	9	-1.87697E-001	-1.87268E-001	0.00000E+000	...........	1410.45
	36	9.25	-1.87560E-001	-1.87128E-001	0.00000E+000	...........	1410.45
	37	9.5	-1.87421E-001	-1.86997E-001	0.00000E+000	...........	1410.45
	38	9.75	-1.87282E-001	-1.86881E-001	0.00000E+000	...........	1410.45
	39	10	-1.87146E-001	-1.86779E-001	0.00000E+000	...........	1410.54
EOC	QUANT	-0.1871464	Open Circuit (V)
PSTATMODEL	IQUANT	64	Pstat Model
PSTATSECTION	LABEL	IFC1010-22093	Pstat Section
PSTATSERIALNO	LABEL	22093	Pstat Serial Number
CTRLMODE	IQUANT	1	Control Mode
ELECTROMETER	IQUANT	0	RE=0 or CS=1
IESTAB	IQUANT	0	I/E Stability
CASPEED	IQUANT	3	Control Amp Speed
CONVENTION	IQUANT	1	Current Convention
ICHRANGE	IQUANT	2	Ich Range
ICHRANGEMODE	TOGGLE	F	Ich Auto Range
ICHOFFSETENABLE	TOGGLE	T	Ich Offset Enable
ICHOFFSET	QUANT	0	Ich Offset (V)
ICHFILTER	IQUANT	4	Ich Filter
VCHRANGE	IQUANT	2	Vch Range
VCHRANGEMODE	TOGGLE	F	Vch Auto Range
VCHOFFSETENABLE	TOGGLE	T	Vch Offset Enable
VCHOFFSET	QUANT	0	Vch Offset (V)
VCHFILTER	IQUANT	4	Vch Filter
IERANGELOWERLIMIT	IQUANT	4	I/E Range Lower Limit
IERANGEMODE	TOGGLE	F	I/E AutoRange
IERANGE	IQUANT	7	I/E Range
ACHSELECT	IQUANT	0	Ach Select
ACHRANGE	IQUANT	2	Ach Range
ACHOFFSETENABLE	TOGGLE	F	Ach Offset Enable
ACHOFFSET	QUANT	0	Ach Offset (V)
ACHFILTER	IQUANT	1	Ach Filter
SENSECABLEID	IQUANT	14	Sense Cable ID
PWRCABLEID	IQUANT	14	Power Cable ID
DCCALDATE	LABEL	11/25/2025	DC Calibration Date
ACCALDATE	LABEL	8/31/2018	AC Calibration Date
FRAMEWORKVERSION	QUANT	7.07	Framework Version
INSTRUMENTVERSION	LABEL	4.34	Instrument Version
ZCURVE	TABLE
	Pt	Time	Freq	Zreal	Zimag	Zsig	Zmod	Zphz	Idc	Vdc	IERange
	#	s	Hz	ohm	ohm	V	ohm	°	A	V	#
	0	10	1004.464	93.22573	-33.36501	1	99.0165	-19.69202	-0.0001918	-1.399711	9
	1	12	800.3049	94.18291	-40.66909	1	102.5885	-23.35515	-0.0001898	-1.399711	9
	2	15	631.0096	95.2887	-50.24884	1	107.726	-27.80413	-0.0001882	-1.39971	9
	3	17	498.6702	96.6894	-62.23531	1	114.9873	-32.76785	-0.0001868	-1.399708	9
	4	19	397.2458	98.4703	-76.7827	1	124.8678	-37.94551	-0.0001857	-1.39971	9
	5	22	319.6023	100.771	-94.0469	1	137.8391	-43.02322	-0.0001848	-1.399712	9
	6	24	251.1161	104.3706	-117.9177	1	157.4732	-48.48751	-0.0001843	-1.39971	9
	7	27	200.8929	109.0713	-145.372	1	181.7404	-53.11942	-0.0001846	-1.399711	9
	8	29	158.0056	116.3918	-181.9709	1	216.0103	-57.39629	-0.0001837	-1.399709	9
	9	31	125.558	126.5313	-225.2651	1	258.369	-60.67709	-0.0001831	-1.39971	9
	10	34	99.734	141.2393	-278.3054	1	312.0936	-63.09232	-0.0001829	-1.399714	9
	11	36	79.44915	161.9869	-341.3038	1	377.7937	-64.61042	-0.0001837	-1.399709	9
	12	38	63.34459	191.3602	-416.5991	1	458.4469	-65.32884	-0.0001837	-1.399706	9
	13	41	49.86702	234.3219	-511.0663	1	562.2237	-65.36874	-0.0001842	-1.399703	9
	14	43	38.10976	308.072	-635.3452	1	706.0962	-64.13175	-0.0001839	-1.399704	9
	15	46	31.25	380.9317	-738.8427	1	831.2626	-62.72532	-0.000184	-1.399705	9
	16	48	24.93351	491.2465	-865.5209	1	995.213	-60.42192	-0.000185	-1.399707	9
	17	51	19.94681	634.3712	-994.71	1	1179.777	-57.47252	-0.0001849	-1.399704	9
	18	53	15.57309	835.7172	-1133.54	1	1408.309	-53.60001	-0.0001851	-1.399704	9
	19	56	12.40079	1064.389	-1235.876	1	1631.047	-49.26357	-0.000185	-1.399703	9
	20	59	9.91015	1316.949	-1292.72	1	1845.395	-44.46807	-0.0001882	-1.399704	9
	21	63	7.971939	1576.052	-1311.866	1	2050.593	-39.77316	-0.0001883	-1.399706	9
	22	67	6.351626	1856.586	-1287.056	1	2259.076	-34.73116	-0.0001879	-1.399706	9
	23	70	4.970838	2122.166	-1210.207	1	2442.988	-29.6948	-0.0001878	-1.399703	9
	24	75	3.942389	2335.891	-1102.648	1	2583.064	-25.26947	-0.000188	-1.399704	9
	25	79	3.16723	2501.011	-983.678	1	2687.505	-21.47032	-0.0001882	-1.399704	9
	26	85	2.485419	2641.021	-863.9189	1	2778.732	-18.11372	-0.0001888	-1.399709	9
	27	92	1.971194	2761.247	-751.7164	1	2861.741	-15.22902	-0.0001894	-1.399709	9
	28	98	1.605308	2833.516	-658.3146	1	2908.985	-13.07956	-0.0001894	-1.399711	9
	29	104	1.260081	2885.655	-604.28	1	2948.247	-11.8273	-0.0001891	-1.399709	9
	30	118	1.001603	2927.638	-550.1712	1	2978.884	-10.64308	-0.0001895	-1.39971	9
