EXPLAIN
TAG	EISPOT
TITLE	LABEL	Potentiostatic EIS	Test &Identifier
DATE	LABEL	4/30/2026	Date
TIME	LABEL	12:22:48	Time
NOTES	NOTES	1	&Notes...
	
PSTAT	PSTAT	Titan	Potentiostat
VDC	POTEN	-1.20000E+000	F	DC &Voltage (V)
FREQINIT	QUANT	1.00000E+003	Initial Fre&q. (Hz)
FREQFINAL	QUANT	1.00000E+000	Final Fre&q. (Hz)
PTSPERDEC	QUANT	1.00000E+001	Points/&decade
VAC	QUANT	1.00000E+001	AC &Voltage (mV rms)
AREA	QUANT	2.80000E-001	&Area (cm^2)
CONDIT	TWOPARAM	F	0.00000E+000	0.00000E+000	Conditionin&g	Time(s)	E(V)
DELAY	TWOPARAM	T	1.00000E+001	0.00000E+000	Init. De&lay	Time(s)	Stab.(mV/s)
SPEED	SELECTOR	2	&Optimize for:
ZGUESS	QUANT	2.86800E+005	E&stimated Z (ohms)
OCVCURVE	TABLE	40
	Pt	T	Vf	Vm	Ach	Over	Temp
	#	s	V vs. Ref.	V	V	bits	deg C
	0	0.25	7.74461E-002	7.74461E-002	0.00000E+000	...........	1410.45
	1	0.5	7.74467E-002	7.74798E-002	0.00000E+000	...........	1409.66
	2	0.75	7.74507E-002	7.75098E-002	0.00000E+000	...........	1409.66
	3	1	7.74617E-002	7.75411E-002	0.00000E+000	...........	1409.66
	4	1.25	7.74813E-002	7.75712E-002	0.00000E+000	...........	1409.66
	5	1.5	7.75077E-002	7.76008E-002	0.00000E+000	...........	1409.84
	6	1.75	7.75374E-002	7.76350E-002	0.00000E+000	...........	1409.84
	7	2	7.75683E-002	7.76610E-002	0.00000E+000	...........	1409.84
	8	2.25	7.75993E-002	7.76903E-002	0.00000E+000	...........	1409.84
	9	2.5	7.76296E-002	7.77186E-002	0.00000E+000	...........	1409.84
	10	2.75	7.76591E-002	7.77481E-002	0.00000E+000	...........	1409.84
	11	3	7.76880E-002	7.77743E-002	0.00000E+000	...........	1409.84
	12	3.25	7.77166E-002	7.78020E-002	0.00000E+000	...........	1409.84
	13	3.5	7.77446E-002	7.78264E-002	0.00000E+000	...........	1409.84
	14	3.75	7.77720E-002	7.78526E-002	0.00000E+000	...........	1409.84
	15	4	7.77988E-002	7.78804E-002	0.00000E+000	...........	1409.84
	16	4.25	7.78251E-002	7.79073E-002	0.00000E+000	...........	1409.84
	17	4.5	7.78515E-002	7.79325E-002	0.00000E+000	...........	1409.84
	18	4.75	7.78780E-002	7.79586E-002	0.00000E+000	...........	1409.84
	19	5	7.79044E-002	7.79847E-002	0.00000E+000	...........	1409.84
	20	5.25	7.79307E-002	7.80118E-002	0.00000E+000	...........	1409.84
	21	5.5	7.79568E-002	7.80386E-002	0.00000E+000	...........	1409.84
	22	5.75	7.79831E-002	7.80634E-002	0.00000E+000	...........	1409.84
	23	6	7.80095E-002	7.80899E-002	0.00000E+000	...........	1409.84
	24	6.25	7.80358E-002	7.81177E-002	0.00000E+000	...........	1409.84
	25	6.5	7.80621E-002	7.81449E-002	0.00000E+000	...........	1409.84
	26	6.75	7.80887E-002	7.81749E-002	0.00000E+000	...........	1409.84
	27	7	7.81159E-002	7.82019E-002	0.00000E+000	...........	1409.84
	28	7.25	7.81436E-002	7.82286E-002	0.00000E+000	...........	1409.84
	29	7.5	7.81716E-002	7.82566E-002	0.00000E+000	...........	1409.84
	30	7.75	7.81994E-002	7.82869E-002	0.00000E+000	...........	1409.84
	31	8	7.82272E-002	7.83125E-002	0.00000E+000	...........	1409.84
	32	8.25	7.82553E-002	7.83436E-002	0.00000E+000	...........	1409.84
	33	8.5	7.82835E-002	7.83726E-002	0.00000E+000	...........	1409.84
	34	8.75	7.83121E-002	7.84025E-002	0.00000E+000	...........	1409.84
	35	9	7.83411E-002	7.84301E-002	0.00000E+000	...........	1409.84
	36	9.25	7.83703E-002	7.84588E-002	0.00000E+000	...........	1409.84
	37	9.5	7.83992E-002	7.84844E-002	0.00000E+000	...........	1409.84
	38	9.75	7.84277E-002	7.85150E-002	0.00000E+000	...........	1409.84
	39	10	7.84558E-002	7.85403E-002	0.00000E+000	...........	1409.84
EOC	QUANT	0.0784558	Open Circuit (V)
PSTATMODEL	IQUANT	64	Pstat Model
PSTATSECTION	LABEL	IFC1010-22093	Pstat Section
PSTATSERIALNO	LABEL	22093	Pstat Serial Number
CTRLMODE	IQUANT	1	Control Mode
ELECTROMETER	IQUANT	0	RE=0 or CS=1
IESTAB	IQUANT	0	I/E Stability
CASPEED	IQUANT	3	Control Amp Speed
CONVENTION	IQUANT	1	Current Convention
ICHRANGE	IQUANT	2	Ich Range
ICHRANGEMODE	TOGGLE	F	Ich Auto Range
ICHOFFSETENABLE	TOGGLE	T	Ich Offset Enable
ICHOFFSET	QUANT	0	Ich Offset (V)
ICHFILTER	IQUANT	4	Ich Filter
VCHRANGE	IQUANT	2	Vch Range
VCHRANGEMODE	TOGGLE	F	Vch Auto Range
VCHOFFSETENABLE	TOGGLE	T	Vch Offset Enable
VCHOFFSET	QUANT	0	Vch Offset (V)
VCHFILTER	IQUANT	4	Vch Filter
IERANGELOWERLIMIT	IQUANT	4	I/E Range Lower Limit
IERANGEMODE	TOGGLE	F	I/E AutoRange
IERANGE	IQUANT	7	I/E Range
ACHSELECT	IQUANT	0	Ach Select
ACHRANGE	IQUANT	2	Ach Range
ACHOFFSETENABLE	TOGGLE	F	Ach Offset Enable
ACHOFFSET	QUANT	0	Ach Offset (V)
ACHFILTER	IQUANT	1	Ach Filter
SENSECABLEID	IQUANT	14	Sense Cable ID
PWRCABLEID	IQUANT	14	Power Cable ID
DCCALDATE	LABEL	11/25/2025	DC Calibration Date
ACCALDATE	LABEL	8/31/2018	AC Calibration Date
FRAMEWORKVERSION	QUANT	7.07	Framework Version
INSTRUMENTVERSION	LABEL	4.34	Instrument Version
ZCURVE	TABLE
	Pt	Time	Freq	Zreal	Zimag	Zsig	Zmod	Zphz	Idc	Vdc	IERange
	#	s	Hz	ohm	ohm	V	ohm	°	A	V	#
	0	9	1004.464	121.9443	-51.81675	1	132.4967	-23.02168	-6.301975E-005	-1.199687	9
	1	12	800.3049	118.5492	-61.25599	1	133.4399	-27.32601	-5.183141E-005	-1.199687	9
	2	15	631.0096	117.494	-74.00815	1	138.8598	-32.20637	-4.387238E-005	-1.199686	9
	3	17	498.6702	117.9251	-90.30516	1	148.5306	-37.44432	-3.81092E-005	-1.199687	9
	4	20	397.2458	118.9541	-109.9373	1	161.9762	-42.74409	-3.364575E-005	-1.199684	9
	5	22	319.6023	120.6878	-133.3487	1	179.8538	-47.8532	-3.039673E-005	-1.199689	9
	6	24	251.1161	123.7582	-166.0756	1	207.1164	-53.30681	-2.790954E-005	-1.199686	9
	7	27	200.8929	127.6427	-203.985	1	240.6294	-57.96391	-2.590238E-005	-1.199687	9
	8	29	158.0056	133.5925	-254.9534	1	287.8337	-62.34601	-2.399948E-005	-1.199676	8
	9	31	125.558	141.6291	-315.5982	1	345.9206	-65.83117	-2.275977E-005	-1.199676	8
	10	34	99.734	152.9486	-391.3185	1	420.1469	-68.65173	-2.174127E-005	-1.199681	8
	11	36	79.44915	168.1929	-483.2866	1	511.7175	-70.81113	-2.087239E-005	-1.199676	8
	12	39	63.34459	189.5321	-595.3984	1	624.8373	-72.34226	-2.016732E-005	-1.199676	8
	13	41	49.86702	221.1787	-742.4742	1	774.718	-73.41151	-1.956616E-005	-1.199678	8
	14	43	38.10976	273.313	-949.9235	1	988.461	-73.94836	-1.904029E-005	-1.199677	8
	15	46	31.25	325.9472	-1137.284	1	1183.07	-74.00761	-1.86027E-005	-1.199678	8
	16	48	24.93351	409.6222	-1394.527	1	1453.443	-73.63062	-1.822108E-005	-1.199678	8
	17	51	19.94681	526.1174	-1699.416	1	1778.993	-72.79815	-1.791215E-005	-1.199678	8
	18	53	15.57309	714.0579	-2107.493	1	2225.175	-71.28266	-1.762439E-005	-1.199677	8
	19	55	12.40079	962.739	-2549.884	1	2725.578	-69.31537	-1.736211E-005	-1.199678	8
	20	58	9.91015	1304.505	-3040.369	1	3308.41	-66.7777	-1.712797E-005	-1.199677	8
	21	61	7.971939	1754.319	-3563.503	1	3971.925	-63.7889	-1.686564E-005	-1.199677	8
	22	65	6.351626	2374.776	-4125.665	1	4760.323	-60.07482	-1.665026E-005	-1.199675	8
	23	69	4.970838	3236.281	-4694.596	1	5701.996	-55.41905	-1.64425E-005	-1.199677	8
	24	74	3.942389	4221.309	-5128.515	1	6642.372	-50.54202	-1.628589E-005	-1.199678	8
	25	80	3.16723	5260.314	-5374.369	1	7520.289	-45.61446	-1.623922E-005	-1.19968	8
	26	86	2.485419	6456.275	-5410.048	1	8423.308	-39.96139	-1.633346E-005	-1.199682	8
	27	94	1.971194	7533.433	-5293.723	1	9207.395	-35.09561	-1.639592E-005	-1.199682	8
	28	103	1.605308	8389.988	-5128.623	1	9833.34	-31.43656	-1.647937E-005	-1.199681	8
	29	114	1.260081	9296.014	-4917.501	1	10516.54	-27.87841	-1.649659E-005	-1.19968	8
	30	127	1.001603	10028.44	-4698.646	1	11074.61	-25.1046	-1.655216E-005	-1.199679	8
