EXPLAIN
TAG	EISPOT
TITLE	LABEL	Potentiostatic EIS	Test &Identifier
DATE	LABEL	4/30/2026	Date
TIME	LABEL	13:40:17	Time
NOTES	NOTES	1	&Notes...
	
PSTAT	PSTAT	Rhea	Potentiostat
VDC	POTEN	-1.60000E+000	F	DC &Voltage (V)
FREQINIT	QUANT	1.00000E+003	Initial Fre&q. (Hz)
FREQFINAL	QUANT	1.00000E+000	Final Fre&q. (Hz)
PTSPERDEC	QUANT	1.00000E+001	Points/&decade
VAC	QUANT	1.00000E+001	AC &Voltage (mV rms)
AREA	QUANT	2.80000E-001	&Area (cm^2)
CONDIT	TWOPARAM	F	0.00000E+000	0.00000E+000	Conditionin&g	Time(s)	E(V)
DELAY	TWOPARAM	T	1.00000E+001	0.00000E+000	Init. De&lay	Time(s)	Stab.(mV/s)
SPEED	SELECTOR	2	&Optimize for:
ZGUESS	QUANT	2.86800E+005	E&stimated Z (ohms)
OCVCURVE	TABLE	40
	Pt	T	Vf	Vm	Ach	Over	Temp
	#	s	V vs. Ref.	V	V	bits	deg C
	0	0.25	-1.46522E-001	-1.46522E-001	0.00000E+000	...........	1416.34
	1	0.5	-1.46521E-001	-1.46486E-001	0.00000E+000	...........	1416.34
	2	0.75	-1.46518E-001	-1.46500E-001	0.00000E+000	...........	1415.55
	3	1	-1.46510E-001	-1.46461E-001	0.00000E+000	...........	1415.55
	4	1.25	-1.46499E-001	-1.46440E-001	0.00000E+000	...........	1415.55
	5	1.5	-1.46484E-001	-1.46399E-001	0.00000E+000	...........	1415.55
	6	1.75	-1.46463E-001	-1.46354E-001	0.00000E+000	...........	1415.81
	7	2	-1.46434E-001	-1.46330E-001	0.00000E+000	...........	1415.81
	8	2.25	-1.46400E-001	-1.46271E-001	0.00000E+000	...........	1415.81
	9	2.5	-1.46362E-001	-1.46210E-001	0.00000E+000	...........	1415.81
	10	2.75	-1.46320E-001	-1.46199E-001	0.00000E+000	...........	1415.81
	11	3	-1.46276E-001	-1.46161E-001	0.00000E+000	...........	1415.81
	12	3.25	-1.46234E-001	-1.46125E-001	0.00000E+000	...........	1415.81
	13	3.5	-1.46196E-001	-1.46091E-001	0.00000E+000	...........	1415.81
	14	3.75	-1.46161E-001	-1.46042E-001	0.00000E+000	...........	1415.81
	15	4	-1.46126E-001	-1.45995E-001	0.00000E+000	...........	1415.81
	16	4.25	-1.46088E-001	-1.45987E-001	0.00000E+000	...........	1415.81
	17	4.5	-1.46049E-001	-1.45929E-001	0.00000E+000	...........	1415.81
	18	4.75	-1.46011E-001	-1.45897E-001	0.00000E+000	...........	1415.81
	19	5	-1.45974E-001	-1.45843E-001	0.00000E+000	...........	1415.81
	20	5.25	-1.45935E-001	-1.45805E-001	0.00000E+000	...........	1415.81
	21	5.5	-1.45895E-001	-1.45783E-001	0.00000E+000	...........	1415.81
	22	5.75	-1.45854E-001	-1.45736E-001	0.00000E+000	...........	1415.90
	23	6	-1.45815E-001	-1.45693E-001	0.00000E+000	...........	1415.90
	24	6.25	-1.45776E-001	-1.45638E-001	0.00000E+000	...........	1415.90
	25	6.5	-1.45737E-001	-1.45637E-001	0.00000E+000	...........	1415.90
	26	6.75	-1.45697E-001	-1.45584E-001	0.00000E+000	...........	1415.81
	27	7	-1.45660E-001	-1.45558E-001	0.00000E+000	...........	1415.81
	28	7.25	-1.45625E-001	-1.45539E-001	0.00000E+000	...........	1415.81
	29	7.5	-1.45593E-001	-1.45485E-001	0.00000E+000	...........	1415.81
	30	7.75	-1.45561E-001	-1.45426E-001	0.00000E+000	...........	1415.90
	31	8	-1.45525E-001	-1.45391E-001	0.00000E+000	...........	1415.90
	32	8.25	-1.45484E-001	-1.45368E-001	0.00000E+000	...........	1415.90
	33	8.5	-1.45442E-001	-1.45336E-001	0.00000E+000	...........	1415.90
	34	8.75	-1.45404E-001	-1.45338E-001	0.00000E+000	...........	1415.81
	35	9	-1.45372E-001	-1.45280E-001	0.00000E+000	...........	1415.81
	36	9.25	-1.45345E-001	-1.45222E-001	0.00000E+000	...........	1415.81
	37	9.5	-1.45314E-001	-1.45179E-001	0.00000E+000	...........	1415.81
	38	9.75	-1.45276E-001	-1.45142E-001	0.00000E+000	...........	1415.81
	39	10	-1.45233E-001	-1.45127E-001	0.00000E+000	...........	1415.81
EOC	QUANT	-0.1452331	Open Circuit (V)
PSTATMODEL	IQUANT	64	Pstat Model
PSTATSECTION	LABEL	IFC1010-22099	Pstat Section
PSTATSERIALNO	LABEL	22099	Pstat Serial Number
CTRLMODE	IQUANT	1	Control Mode
ELECTROMETER	IQUANT	0	RE=0 or CS=1
IESTAB	IQUANT	0	I/E Stability
CASPEED	IQUANT	3	Control Amp Speed
CONVENTION	IQUANT	1	Current Convention
ICHRANGE	IQUANT	2	Ich Range
ICHRANGEMODE	TOGGLE	F	Ich Auto Range
ICHOFFSETENABLE	TOGGLE	T	Ich Offset Enable
ICHOFFSET	QUANT	0	Ich Offset (V)
ICHFILTER	IQUANT	4	Ich Filter
VCHRANGE	IQUANT	2	Vch Range
VCHRANGEMODE	TOGGLE	F	Vch Auto Range
VCHOFFSETENABLE	TOGGLE	T	Vch Offset Enable
VCHOFFSET	QUANT	0	Vch Offset (V)
VCHFILTER	IQUANT	4	Vch Filter
IERANGELOWERLIMIT	IQUANT	4	I/E Range Lower Limit
IERANGEMODE	TOGGLE	F	I/E AutoRange
IERANGE	IQUANT	7	I/E Range
ACHSELECT	IQUANT	0	Ach Select
ACHRANGE	IQUANT	2	Ach Range
ACHOFFSETENABLE	TOGGLE	F	Ach Offset Enable
ACHOFFSET	QUANT	0	Ach Offset (V)
ACHFILTER	IQUANT	1	Ach Filter
SENSECABLEID	IQUANT	14	Sense Cable ID
PWRCABLEID	IQUANT	14	Power Cable ID
DCCALDATE	LABEL	11/25/2025	DC Calibration Date
ACCALDATE	LABEL	9/8/2018	AC Calibration Date
FRAMEWORKVERSION	QUANT	7.07	Framework Version
INSTRUMENTVERSION	LABEL	4.34	Instrument Version
ZCURVE	TABLE
	Pt	Time	Freq	Zreal	Zimag	Zsig	Zmod	Zphz	Idc	Vdc	IERange
	#	s	Hz	ohm	ohm	V	ohm	°	A	V	#
	0	10	1004.464	58.06505	-15.37531	1	60.06621	-14.83123	-0.0003243	-1.600041	9
	1	12	800.3049	58.73964	-18.16078	1	61.48299	-17.18026	-0.0003301	-1.600041	9
	2	14	631.0096	59.6506	-21.72783	1	63.48459	-20.01424	-0.0003353	-1.600037	9
	3	17	498.6702	60.85419	-26.00481	1	66.17766	-23.13846	-0.0003414	-1.600038	9
	4	19	397.2458	62.39032	-30.90689	1	69.62606	-26.35288	-0.0003485	-1.600037	9
	5	22	319.6023	64.429	-36.40654	1	74.00359	-29.46925	-0.0003553	-1.600037	9
	6	24	251.1161	67.50033	-43.60633	1	80.36048	-32.86313	-0.0003621	-1.600034	9
	7	27	200.8929	71.46341	-51.25528	1	87.94386	-35.649	-0.0003698	-1.600034	9
	8	29	158.0056	77.34736	-60.76363	1	98.3607	-38.15297	-0.0003782	-1.600032	9
	9	31	125.558	85.04989	-70.6098	1	110.5406	-39.70001	-0.0003864	-1.600028	9
	10	34	99.734	95.4287	-80.98095	1	125.1581	-40.31798	-0.0003933	-1.600033	9
	11	36	79.44915	108.5057	-90.6153	1	141.367	-39.86594	-0.0004015	-1.600021	9
	12	39	63.34459	124.5277	-98.6631	1	158.8759	-38.38972	-0.0004082	-1.600023	9
	13	41	49.86702	144.2965	-104.3108	1	178.0512	-35.86287	-0.000415	-1.600021	9
	14	43	38.10976	168.2849	-105.6443	1	198.6971	-32.11939	-0.0004213	-1.600021	9
	15	46	31.25	184.8161	-102.4889	1	211.3314	-29.01035	-0.0004288	-1.600022	9
	16	49	24.93351	202.3937	-95.9329	1	223.9785	-25.36055	-0.0004368	-1.600018	9
	17	51	19.94681	213.4781	-85.29234	1	229.8862	-21.77852	-0.0004516	-1.60002	9
	18	54	15.57309	224.8917	-73.06757	1	236.4638	-17.99904	-0.0004612	-1.600021	9
	19	57	12.40079	229.6567	-60.70201	1	237.5435	-14.80562	-0.0004716	-1.600019	9
	20	60	9.91015	233.473	-50.77767	1	238.931	-12.27009	-0.0004809	-1.600015	9
	21	64	7.971939	234.0578	-41.75942	1	237.7538	-10.11599	-0.0004911	-1.600017	9
	22	68	6.351626	233.0248	-33.42899	1	235.4104	-8.16377	-0.0005016	-1.600017	9
	23	72	4.970838	230.29	-26.41789	1	231.8004	-6.544121	-0.0005132	-1.600015	9
	24	77	3.942389	226.5565	-20.96984	1	227.5249	-5.288173	-0.0005266	-1.600014	9
	25	83	3.16723	221.6956	-17.07289	1	222.352	-4.403686	-0.0005414	-1.600011	9
	26	89	2.485419	216.0866	-13.54035	1	216.5104	-3.585564	-0.0005589	-1.600015	9
	27	97	1.971194	210.138	-11.43405	1	210.4489	-3.114512	-0.0005745	-1.60001	9
	28	106	1.605308	203.6213	-9.355476	1	203.8362	-2.630631	-0.0005966	-1.600011	9
	29	117	1.260081	191.583	-7.298061	1	191.7219	-2.181541	-0.0006392	-1.600007	9
	30	140	1.001603	187.6497	-6.633371	1	187.7669	-2.024549	-0.0006567	-1.600005	9
