EXPLAIN
TAG	EISPOT
TITLE	LABEL	Potentiostatic EIS	Test &Identifier
DATE	LABEL	4/30/2026	Date
TIME	LABEL	13:27:40	Time
NOTES	NOTES	1	&Notes...
	
PSTAT	PSTAT	Titan	Potentiostat
VDC	POTEN	-1.40000E+000	F	DC &Voltage (V)
FREQINIT	QUANT	1.00000E+003	Initial Fre&q. (Hz)
FREQFINAL	QUANT	1.00000E+000	Final Fre&q. (Hz)
PTSPERDEC	QUANT	1.00000E+001	Points/&decade
VAC	QUANT	1.00000E+001	AC &Voltage (mV rms)
AREA	QUANT	2.80000E-001	&Area (cm^2)
CONDIT	TWOPARAM	F	0.00000E+000	0.00000E+000	Conditionin&g	Time(s)	E(V)
DELAY	TWOPARAM	T	1.00000E+001	0.00000E+000	Init. De&lay	Time(s)	Stab.(mV/s)
SPEED	SELECTOR	2	&Optimize for:
ZGUESS	QUANT	2.86800E+005	E&stimated Z (ohms)
OCVCURVE	TABLE	40
	Pt	T	Vf	Vm	Ach	Over	Temp
	#	s	V vs. Ref.	V	V	bits	deg C
	0	0.25	-2.97620E-001	-2.97620E-001	0.00000E+000	...........	1410.27
	1	0.5	-2.97604E-001	-2.96777E-001	0.00000E+000	...........	1410.27
	2	0.75	-2.97505E-001	-2.95952E-001	0.00000E+000	...........	1410.27
	3	1	-2.97222E-001	-2.95150E-001	0.00000E+000	...........	1410.27
	4	1.25	-2.96710E-001	-2.94328E-001	0.00000E+000	...........	1410.63
	5	1.5	-2.96018E-001	-2.93492E-001	0.00000E+000	...........	1410.63
	6	1.75	-2.95229E-001	-2.92690E-001	0.00000E+000	...........	1410.63
	7	2	-2.94404E-001	-2.91869E-001	0.00000E+000	...........	1410.63
	8	2.25	-2.93576E-001	-2.91091E-001	0.00000E+000	...........	1410.71
	9	2.5	-2.92757E-001	-2.90319E-001	0.00000E+000	...........	1410.71
	10	2.75	-2.91952E-001	-2.89547E-001	0.00000E+000	...........	1410.71
	11	3	-2.91161E-001	-2.88780E-001	0.00000E+000	...........	1410.71
	12	3.25	-2.90381E-001	-2.88033E-001	0.00000E+000	...........	1410.63
	13	3.5	-2.89611E-001	-2.87271E-001	0.00000E+000	...........	1410.63
	14	3.75	-2.88848E-001	-2.86538E-001	0.00000E+000	...........	1410.63
	15	4	-2.88091E-001	-2.85805E-001	0.00000E+000	...........	1410.63
	16	4.25	-2.87342E-001	-2.85068E-001	0.00000E+000	...........	1410.63
	17	4.5	-2.86599E-001	-2.84350E-001	0.00000E+000	...........	1410.63
	18	4.75	-2.85863E-001	-2.83632E-001	0.00000E+000	...........	1410.63
	19	5	-2.85133E-001	-2.82931E-001	0.00000E+000	...........	1410.63
	20	5.25	-2.84410E-001	-2.82206E-001	0.00000E+000	...........	1410.63
	21	5.5	-2.83694E-001	-2.81535E-001	0.00000E+000	...........	1410.63
	22	5.75	-2.82984E-001	-2.80839E-001	0.00000E+000	...........	1410.63
	23	6	-2.82280E-001	-2.80137E-001	0.00000E+000	...........	1410.63
	24	6.25	-2.81584E-001	-2.79491E-001	0.00000E+000	...........	1410.63
	25	6.5	-2.80894E-001	-2.78795E-001	0.00000E+000	...........	1410.63
	26	6.75	-2.80210E-001	-2.78169E-001	0.00000E+000	...........	1410.63
	27	7	-2.79537E-001	-2.77564E-001	0.00000E+000	...........	1410.63
	28	7.25	-2.78878E-001	-2.76965E-001	0.00000E+000	...........	1410.63
	29	7.5	-2.78239E-001	-2.76380E-001	0.00000E+000	...........	1410.63
	30	7.75	-2.77621E-001	-2.75824E-001	0.00000E+000	...........	1410.63
	31	8	-2.77022E-001	-2.75251E-001	0.00000E+000	...........	1410.63
	32	8.25	-2.76438E-001	-2.74688E-001	0.00000E+000	...........	1410.63
	33	8.5	-2.75864E-001	-2.74110E-001	0.00000E+000	...........	1410.63
	34	8.75	-2.75295E-001	-2.73546E-001	0.00000E+000	...........	1410.63
	35	9	-2.74727E-001	-2.72978E-001	0.00000E+000	...........	1410.63
	36	9.25	-2.74159E-001	-2.72426E-001	0.00000E+000	...........	1410.63
	37	9.5	-2.73592E-001	-2.71855E-001	0.00000E+000	...........	1410.63
	38	9.75	-2.73027E-001	-2.71292E-001	0.00000E+000	...........	1410.63
	39	10	-2.72463E-001	-2.70730E-001	0.00000E+000	...........	1410.63
EOC	QUANT	-0.2724634	Open Circuit (V)
PSTATMODEL	IQUANT	64	Pstat Model
PSTATSECTION	LABEL	IFC1010-22093	Pstat Section
PSTATSERIALNO	LABEL	22093	Pstat Serial Number
CTRLMODE	IQUANT	1	Control Mode
ELECTROMETER	IQUANT	0	RE=0 or CS=1
IESTAB	IQUANT	0	I/E Stability
CASPEED	IQUANT	3	Control Amp Speed
CONVENTION	IQUANT	1	Current Convention
ICHRANGE	IQUANT	2	Ich Range
ICHRANGEMODE	TOGGLE	F	Ich Auto Range
ICHOFFSETENABLE	TOGGLE	T	Ich Offset Enable
ICHOFFSET	QUANT	0	Ich Offset (V)
ICHFILTER	IQUANT	4	Ich Filter
VCHRANGE	IQUANT	2	Vch Range
VCHRANGEMODE	TOGGLE	F	Vch Auto Range
VCHOFFSETENABLE	TOGGLE	T	Vch Offset Enable
VCHOFFSET	QUANT	0	Vch Offset (V)
VCHFILTER	IQUANT	4	Vch Filter
IERANGELOWERLIMIT	IQUANT	4	I/E Range Lower Limit
IERANGEMODE	TOGGLE	F	I/E AutoRange
IERANGE	IQUANT	7	I/E Range
ACHSELECT	IQUANT	0	Ach Select
ACHRANGE	IQUANT	2	Ach Range
ACHOFFSETENABLE	TOGGLE	F	Ach Offset Enable
ACHOFFSET	QUANT	0	Ach Offset (V)
ACHFILTER	IQUANT	1	Ach Filter
SENSECABLEID	IQUANT	14	Sense Cable ID
PWRCABLEID	IQUANT	14	Power Cable ID
DCCALDATE	LABEL	11/25/2025	DC Calibration Date
ACCALDATE	LABEL	8/31/2018	AC Calibration Date
FRAMEWORKVERSION	QUANT	7.07	Framework Version
INSTRUMENTVERSION	LABEL	4.34	Instrument Version
ZCURVE	TABLE
	Pt	Time	Freq	Zreal	Zimag	Zsig	Zmod	Zphz	Idc	Vdc	IERange
	#	s	Hz	ohm	ohm	V	ohm	°	A	V	#
	0	8	1004.464	137.6063	-41.09693	1	143.6122	-16.62856	-2.253287E-005	-1.399722	9
	1	10	800.3049	139.1763	-49.31264	1	147.6543	-19.51014	-2.105089E-005	-1.399719	9
	2	12	631.0096	140.922	-60.06386	1	153.1884	-23.0847	-2.012096E-005	-1.39972	9
	3	15	498.6702	142.9007	-73.31205	1	160.6091	-27.15908	-1.947532E-005	-1.399722	9
	4	17	397.2458	144.9361	-89.31601	1	170.2464	-31.6432	-1.89799E-005	-1.399722	9
	5	20	319.6023	147.3887	-108.2534	1	182.8721	-36.29637	-1.859854E-005	-1.399722	9
	6	22	251.1161	150.6484	-134.4854	1	201.9437	-41.75562	-1.828631E-005	-1.399721	9
	7	24	200.8929	154.5787	-164.8118	1	225.9591	-46.83509	-1.768034E-005	-1.399716	8
	8	27	158.0056	159.8202	-205.513	1	260.3422	-52.12905	-1.744122E-005	-1.399713	8
	9	29	125.558	166.5023	-254.0904	1	303.7844	-56.76367	-1.725383E-005	-1.399711	8
	10	31	99.734	176.1144	-314.4987	1	360.4521	-60.75185	-1.709798E-005	-1.399716	8
	11	34	79.44915	188.8298	-388.3469	1	431.8217	-64.06913	-1.695202E-005	-1.399714	8
	12	36	63.34459	206.2857	-478.7931	1	521.3411	-66.69144	-1.678067E-005	-1.399711	8
	13	39	49.86702	232.1287	-596.9844	1	640.5264	-68.75215	-1.665151E-005	-1.39971	8
	14	42	38.10976	274.7777	-762.9436	1	810.9166	-70.19328	-1.65427E-005	-1.399707	8
	15	44	31.25	318.578	-912.7851	1	966.783	-70.76012	-1.642882E-005	-1.39971	8
	16	47	24.93351	387.8765	-1116.589	1	1182.04	-70.84399	-1.635566E-005	-1.39971	8
	17	49	19.94681	483.3827	-1357.056	1	1440.576	-70.39412	-1.630427E-005	-1.399707	8
	18	52	15.57309	632.6424	-1676.701	1	1792.083	-69.32782	-1.620851E-005	-1.39971	8
	19	54	12.40079	826.3051	-2020.495	1	2182.93	-67.75732	-1.612041E-005	-1.399711	8
	20	58	9.91015	1091.182	-2405.132	1	2641.086	-65.59673	-1.603843E-005	-1.399712	8
	21	61	7.971939	1435.371	-2815.401	1	3160.186	-62.98623	-1.592158E-005	-1.399714	8
	22	65	6.351626	1909.085	-3255.891	1	3774.312	-59.61486	-1.582013E-005	-1.399712	8
	23	69	4.970838	2560.806	-3713.502	1	4510.856	-55.41012	-1.568069E-005	-1.39971	8
	24	74	3.942389	3305.461	-4067.098	1	5240.931	-50.89814	-1.557365E-005	-1.399709	8
	25	80	3.16723	4086.646	-4321.793	1	5947.989	-46.60189	-1.544319E-005	-1.399709	8
	26	86	2.485419	5005.548	-4479.277	1	6717.101	-41.82417	-1.532234E-005	-1.399714	8
	27	94	1.971194	5853.702	-4538.651	1	7407.104	-37.78811	-1.519196E-005	-1.399714	8
	28	103	1.605308	6577.566	-4555.702	1	8001.175	-34.70694	-1.504448E-005	-1.399715	8
	29	114	1.260081	7349.004	-4546.571	1	8641.711	-31.74363	-1.492978E-005	-1.399715	8
	30	127	1.001603	8029.064	-4529.497	1	9218.58	-29.42898	-1.488504E-005	-1.399714	8
